{
  "AcquisitionMatrixPE": 64,
  "AcquisitionNumber": 1,
  "AcquisitionTime": "11:28:29.100000",
  "BandwidthPerPixelPhaseEncode": 25.202,
  "BaseResolution": 64,
  "BodyPartExamined": "BRAIN",
  "ConsistencyInfo": "N4_VD13C_LATEST_20121124",
  "ConversionSoftware": "dcm2niix",
  "ConversionSoftwareVersion": "v1.0.20201102",
  "DerivedVendorReportedEchoSpacing": 0.00061999,
  "DeviceSerialNumber": "45758",
  "DwellTime": 4.3e-06,
  "EchoTime": 0.03,
  "EchoTrainLength": 64,
  "EffectiveEchoSpacing": 0.00061999,
  "FlipAngle": 90,
  "ImageOrientationPatientDICOM": [0.99985, -0.0157279, -0.00722834, 0.0157069, 0.999872, -0.00295658],
  "ImageType": [
    "ORIGINAL",
    "PRIMARY",
    "M",
    "ND",
    "MOSAIC"
],
  "ImagingFrequency": 123.2,
  "InPlanePhaseEncodingDirectionDICOM": "ROW",
  "InstitutionAddress": "Street StreetNo,City /652E4B/,District,KR,ZIP",
  "InstitutionName": "DGMIF",
  "InstitutionalDepartmentName": "Department",
  "MRAcquisitionType": "2D",
  "MagneticFieldStrength": 3,
  "Manufacturer": "Siemens",
  "ManufacturersModelName": "Skyra",
  "Modality": "MR",
  "PartialFourier": 1,
  "PatientPosition": "HFS",
  "PercentPhaseFOV": 100,
  "PercentSampling": 100,
  "PhaseEncodingDirection": "i",
  "PhaseEncodingSteps": 64,
  "PhaseResolution": 1,
  "PixelBandwidth": 1815,
  "ProcedureStepDescription": "DGMIF^DGIST_Jeon",
  "ProtocolName": "EPI_DGIST_1",
  "PulseSequenceDetails": "%SiemensSeq%\\ep2d_bold",
  "ReceiveCoilActiveElements": "HC1-7",
  "ReceiveCoilName": "HeadNeck_64",
  "ReconMatrixPE": 64,
  "RepetitionTime": 2,
  "SAR": 0.116422,
  "ScanOptions": "FS",
  "ScanningSequence": "EP",
  "SequenceName": "*epfid2d1_64",
  "SequenceVariant": "SK",
  "SeriesDescription": "EPI_DGIST_1",
  "SeriesNumber": 2,
  "ShimSetting": [-9706, -13583, -8566, 264, -444, -578, -1062, -103],
  "SliceThickness": 4,
  "SliceTiming": [0.99, 0, 1.055, 0.065, 1.12, 0.1325, 1.1875, 0.1975, 1.2525, 0.2625, 1.32, 0.33, 1.385, 0.395, 1.45, 0.4625, 1.5175, 0.5275, 1.5825, 0.5925, 1.65, 0.66, 1.715, 0.725, 1.78, 0.7925, 1.8475, 0.8575, 1.9125, 0.9225],
  "SoftwareVersions": "syngo MR D13C",
  "SpacingBetweenSlices": 4.8,
  "StationName": "AWP45758",
  "TaskName": "asrt",
  "TotalReadoutTime": 0.0390594,
  "TxRefAmp": 304.263,
  "dcmmeta_affine": [
    [-2.9995505809783936, 0.047120705246925354, -0.03491479903459549, 93.1978759765625],
    [0.04718378558754921, 2.999616861343384, -0.013644489459693432, -127.9190902709961],
    [-0.02168501541018486, 0.00886973924934864, 4.799853801727295, -88.70928955078125],
    [0.0, 0.0, 0.0, 1.0]
],
  "dcmmeta_reorient_transform": [
    [0.0, -1.0, 0.0, 63.0],
    [1.0, 0.0, 0.0, 0.0],
    [0.0, 0.0, 1.0, 0.0],
    [0.0, 0.0, 0.0, 1.0]
],
  "dcmmeta_shape": [64, 64, 30, 514],
  "dcmmeta_slice_dim": 2,
  "dcmmeta_version": 0.6,
  "global": {
    "const": {
      "AcquisitionMatrix": [0, 64, 64, 0],
      "AngioFlag": "N",
      "BitsAllocated": 16,
      "BitsStored": 12,
      "BodyPartExamined": "BRAIN",
      "Columns": 384,
      "EchoNumbers": 1,
      "EchoTime": 30.0,
      "EchoTrainLength": 64,
      "FlipAngle": 90.0,
      "HighBit": 11,
      "ImageOrientationPatient": [0.99985018046791, -0.0157279286784, -0.0072283385209, 0.01570690175748, 0.99987226777931, -0.0029565796199],
      "ImagePositionPatient": [-583.63387731333, -533.44605014975, -83.261737272926],
      "ImageType": [
        "ORIGINAL",
        "PRIMARY",
        "M",
        "ND",
        "MOSAIC"
],
      "ImagedNucleus": "1H",
      "ImagingFrequency": 123.200353,
      "InPlanePhaseEncodingDirection": "ROW",
      "MRAcquisitionType": "2D",
      "MagneticFieldStrength": 3.0,
      "Manufacturer": "SIEMENS",
      "ManufacturerModelName": "Skyra",
      "Modality": "MR",
      "NumberOfAverages": 1.0,
      "NumberOfPhaseEncodingSteps": 64,
      "PercentPhaseFieldOfView": 100.0,
      "PercentSampling": 100.0,
      "PerformedProcedureStepStartTime": "110539.029000",
      "PhotometricInterpretation": "MONOCHROME2",
      "PixelBandwidth": 1815.0,
      "PixelRepresentation": 0,
      "PixelSpacing": [3.0, 3.0],
      "ProtocolName": "EPI_DGIST_1",
      "RepetitionTime": 2000.0,
      "Rows": 384,
      "SAR": 0.11642214931987,
      "SamplesPerPixel": 1,
      "ScanOptions": "FS",
      "ScanningSequence": "EP",
      "SequenceName": "*epfid2d1_64",
      "SequenceVariant": "SK",
      "SeriesDescription": "EPI_DGIST_1",
      "SeriesNumber": 2,
      "SeriesTime": "112920.262000",
      "SliceLocation": -89.020876751975,
      "SliceThickness": 4.0,
      "SmallestImagePixelValue": 0,
      "SoftwareVersions": "syngo MR D13C",
      "SpacingBetweenSlices": 4.800000131281,
      "SpecificCharacterSet": "ISO_IR 100",
      "StudyID": "1",
      "StudyTime": "110538.943000",
      "TimeOfLastCalibration": ["123723.000000", "123723.000000"],
      "TransmitCoilName": "Body",
      "VariableFlipAngleFlag": "N",
      "WindowCenterWidthExplanation": "Algo1",
      "dBdt": 0.0},
    "slices": {}
  },
  "time": {
    "samples": {
      "AcquisitionNumber": [1, 2, 3, 4, 5, 6, 7, 8, 9, 10, 11, 12, 13, 14, 15, 16, 17, 18, 19, 20, 21, 22, 23, 24, 25, 26, 27, 28, 29, 30, 31, 32, 33, 34, 35, 36, 37, 38, 39, 40, 41, 42, 43, 44, 45, 46, 47, 48, 49, 50, 51, 52, 53, 54, 55, 56, 57, 58, 59, 60, 61, 62, 63, 64, 65, 66, 67, 68, 69, 70, 71, 72, 73, 74, 75, 76, 77, 78, 79, 80, 81, 82, 83, 84, 85, 86, 87, 88, 89, 90, 91, 92, 93, 94, 95, 96, 97, 98, 99, 100, 101, 102, 103, 104, 105, 106, 107, 108, 109, 110, 111, 112, 113, 114, 115, 116, 117, 118, 119, 120, 121, 122, 123, 124, 125, 126, 127, 128, 129, 130, 131, 132, 133, 134, 135, 136, 137, 138, 139, 140, 141, 142, 143, 144, 145, 146, 147, 148, 149, 150, 151, 152, 153, 154, 155, 156, 157, 158, 159, 160, 161, 162, 163, 164, 165, 166, 167, 168, 169, 170, 171, 172, 173, 174, 175, 176, 177, 178, 179, 180, 181, 182, 183, 184, 185, 186, 187, 188, 189, 190, 191, 192, 193, 194, 195, 196, 197, 198, 199, 200, 201, 202, 203, 204, 205, 206, 207, 208, 209, 210, 211, 212, 213, 214, 215, 216, 217, 218, 219, 220, 221, 222, 223, 224, 225, 226, 227, 228, 229, 230, 231, 232, 233, 234, 235, 236, 237, 238, 239, 240, 241, 242, 243, 244, 245, 246, 247, 248, 249, 250, 251, 252, 253, 254, 255, 256, 257, 258, 259, 260, 261, 262, 263, 264, 265, 266, 267, 268, 269, 270, 271, 272, 273, 274, 275, 276, 277, 278, 279, 280, 281, 282, 283, 284, 285, 286, 287, 288, 289, 290, 291, 292, 293, 294, 295, 296, 297, 298, 299, 300, 301, 302, 303, 304, 305, 306, 307, 308, 309, 310, 311, 312, 313, 314, 315, 316, 317, 318, 319, 320, 321, 322, 323, 324, 325, 326, 327, 328, 329, 330, 331, 332, 333, 334, 335, 336, 337, 338, 339, 340, 341, 342, 343, 344, 345, 346, 347, 348, 349, 350, 351, 352, 353, 354, 355, 356, 357, 358, 359, 360, 361, 362, 363, 364, 365, 366, 367, 368, 369, 370, 371, 372, 373, 374, 375, 376, 377, 378, 379, 380, 381, 382, 383, 384, 385, 386, 387, 388, 389, 390, 391, 392, 393, 394, 395, 396, 397, 398, 399, 400, 401, 402, 403, 404, 405, 406, 407, 408, 409, 410, 411, 412, 413, 414, 415, 416, 417, 418, 419, 420, 421, 422, 423, 424, 425, 426, 427, 428, 429, 430, 431, 432, 433, 434, 435, 436, 437, 438, 439, 440, 441, 442, 443, 444, 445, 446, 447, 448, 449, 450, 451, 452, 453, 454, 455, 456, 457, 458, 459, 460, 461, 462, 463, 464, 465, 466, 467, 468, 469, 470, 471, 472, 473, 474, 475, 476, 477, 478, 479, 480, 481, 482, 483, 484, 485, 486, 487, 488, 489, 490, 491, 492, 493, 494, 495, 496, 497, 498, 499, 500, 501, 502, 503, 504, 505, 506, 507, 508, 509, 510, 511, 512, 513, 514],
      "AcquisitionTime": ["112829.100000", "112831.100000", "112833.100000", "112835.100000", "112837.100000", "112839.100000", "112841.100000", "112843.100000", "112845.100000", "112847.100000", "112849.100000", "112851.100000", "112853.100000", "112855.100000", "112857.100000", "112859.100000", "112901.100000", "112903.100000", "112905.100000", "112907.100000", "112909.100000", "112911.100000", "112913.100000", "112915.100000", "112917.100000", "112919.100000", "112921.100000", "112923.100000", "112925.100000", "112927.100000", "112929.100000", "112931.100000", "112933.100000", "112935.100000", "112937.100000", "112939.100000", "112941.100000", "112943.100000", "112945.100000", "112947.100000", "112949.100000", "112951.100000", "112953.100000", "112955.100000", "112957.100000", "112959.100000", "113001.100000", "113003.100000", "113005.100000", "113007.100000", "113009.100000", "113011.100000", "113013.100000", "113015.100000", "113017.100000", "113019.100000", "113021.100000", "113023.100000", "113025.100000", "113027.100000", "113029.100000", "113031.100000", "113033.100000", "113035.100000", "113037.100000", "113039.100000", "113041.100000", "113043.100000", "113045.100000", "113047.100000", "113049.100000", "113051.100000", "113053.100000", "113055.100000", "113057.100000", "113059.100000", "113101.100000", "113103.100000", "113105.100000", "113107.100000", "113109.100000", "113111.100000", "113113.100000", "113115.100000", "113117.100000", "113119.100000", "113121.100000", "113123.100000", "113125.100000", "113127.100000", "113129.100000", "113131.100000", "113133.100000", "113135.100000", "113137.100000", "113139.100000", "113141.100000", "113143.100000", "113145.100000", "113147.100000", "113149.100000", "113151.100000", "113153.100000", "113155.100000", "113157.100000", "113159.100000", "113201.100000", "113203.100000", "113205.100000", "113207.100000", "113209.100000", "113211.100000", "113213.100000", "113215.100000", "113217.100000", "113219.100000", "113221.100000", "113223.100000", "113225.100000", "113227.100000", "113229.100000", "113231.100000", "113233.100000", "113235.100000", "113237.100000", "113239.100000", "113241.100000", "113243.100000", "113245.100000", "113247.100000", "113249.100000", "113251.100000", "113253.100000", "113255.100000", "113257.100000", "113259.100000", "113301.100000", "113303.100000", "113305.100000", "113307.100000", "113309.100000", "113311.100000", "113313.100000", "113315.100000", "113317.100000", "113319.100000", "113321.100000", "113323.100000", "113325.100000", "113327.100000", "113329.100000", "113331.100000", "113333.100000", "113335.100000", "113337.100000", "113339.100000", "113341.100000", "113343.100000", "113345.100000", "113347.100000", "113349.100000", "113351.100000", "113353.100000", "113355.100000", "113357.100000", "113359.100000", "113401.100000", "113403.100000", "113405.100000", "113407.100000", "113409.100000", "113411.100000", "113413.100000", "113415.100000", "113417.100000", "113419.100000", "113421.100000", "113423.100000", "113425.100000", "113427.100000", "113429.100000", "113431.100000", "113433.100000", "113435.100000", "113437.100000", "113439.100000", "113441.100000", "113443.100000", "113445.100000", "113447.100000", "113449.100000", "113451.100000", "113453.100000", "113455.100000", "113457.100000", "113459.100000", "113501.100000", "113503.100000", "113505.100000", "113507.100000", "113509.100000", "113511.100000", "113513.102500", "113515.102500", "113517.102500", "113519.102500", "113521.102500", "113523.102500", "113525.102500", "113527.102500", "113529.102500", "113531.102500", "113533.102500", "113535.102500", "113537.102500", "113539.102500", "113541.102500", "113543.102500", "113545.102500", "113547.102500", "113549.102500", "113551.102500", "113553.102500", "113555.102500", "113557.102500", "113559.102500", "113601.102500", "113603.102500", "113605.102500", "113607.102500", "113609.102500", "113611.102500", "113613.102500", "113615.102500", "113617.102500", "113619.102500", "113621.102500", "113623.102500", "113625.102500", "113627.102500", "113629.102500", "113631.102500", "113633.102500", "113635.102500", "113637.102500", "113639.102500", "113641.102500", "113643.102500", "113645.102500", "113647.102500", "113649.102500", "113651.102500", "113653.102500", "113655.102500", "113657.102500", "113659.102500", "113701.102500", "113703.102500", "113705.102500", "113707.102500", "113709.102500", "113711.102500", "113713.102500", "113715.102500", "113717.102500", "113719.102500", "113721.102500", "113723.102500", "113725.102500", "113727.102500", "113729.102500", "113731.102500", "113733.102500", "113735.102500", "113737.102500", "113739.102500", "113741.102500", "113743.102500", "113745.102500", "113747.102500", "113749.102500", "113751.102500", "113753.102500", "113755.102500", "113757.102500", "113759.102500", "113801.102500", "113803.102500", "113805.102500", "113807.102500", "113809.102500", "113811.102500", "113813.102500", "113815.102500", "113817.102500", "113819.102500", "113821.102500", "113823.102500", "113825.102500", "113827.102500", "113829.102500", "113831.102500", "113833.102500", "113835.102500", "113837.102500", "113839.102500", "113841.102500", "113843.102500", "113845.102500", "113847.102500", "113849.102500", "113851.102500", "113853.102500", "113855.102500", "113857.102500", "113859.102500", "113901.102500", "113903.102500", "113905.102500", "113907.102500", "113909.102500", "113911.102500", "113913.102500", "113915.102500", "113917.102500", "113919.102500", "113921.102500", "113923.102500", "113925.102500", "113927.102500", "113929.102500", "113931.102500", "113933.102500", "113935.102500", "113937.102500", "113939.102500", "113941.102500", "113943.102500", "113945.102500", "113947.102500", "113949.102500", "113951.102500", "113953.102500", "113955.102500", "113957.102500", "113959.102500", "114001.102500", "114003.102500", "114005.102500", "114007.102500", "114009.102500", "114011.102500", "114013.102500", "114015.102500", "114017.102500", "114019.102500", "114021.102500", "114023.102500", "114025.102500", "114027.102500", "114029.102500", "114031.102500", "114033.102500", "114035.102500", "114037.102500", "114039.102500", "114041.102500", "114043.102500", "114045.102500", "114047.102500", "114049.102500", "114051.102500", "114053.102500", "114055.102500", "114057.102500", "114059.102500", "114101.102500", "114103.102500", "114105.102500", "114107.102500", "114109.102500", "114111.102500", "114113.102500", "114115.102500", "114117.102500", "114119.102500", "114121.102500", "114123.102500", "114125.102500", "114127.102500", "114129.102500", "114131.102500", "114133.102500", "114135.102500", "114137.102500", "114139.102500", "114141.102500", "114143.102500", "114145.102500", "114147.102500", "114149.102500", "114151.102500", "114153.102500", "114155.102500", "114157.102500", "114159.102500", "114201.102500", "114203.102500", "114205.102500", "114207.102500", "114209.102500", "114211.102500", "114213.102500", "114215.102500", "114217.102500", "114219.102500", "114221.102500", "114223.102500", "114225.102500", "114227.102500", "114229.102500", "114231.102500", "114233.102500", "114235.102500", "114237.102500", "114239.102500", "114241.102500", "114243.102500", "114245.102500", "114247.102500", "114249.102500", "114251.102500", "114253.102500", "114255.102500", "114257.102500", "114259.102500", "114301.102500", "114303.102500", "114305.102500", "114307.102500", "114309.102500", "114311.102500", "114313.102500", "114315.102500", "114317.102500", "114319.102500", "114321.102500", "114323.102500", "114325.102500", "114327.102500", "114329.102500", "114331.102500", "114333.105000", "114335.105000", "114337.105000", "114339.105000", "114341.105000", "114343.105000", "114345.105000", "114347.105000", "114349.105000", "114351.105000", "114353.105000", "114355.105000", "114357.105000", "114359.105000", "114401.105000", "114403.105000", "114405.105000", "114407.105000", "114409.105000", "114411.105000", "114413.105000", "114415.105000", "114417.105000", "114419.105000", "114421.105000", "114423.105000", "114425.105000", "114427.105000", "114429.105000", "114431.105000", "114433.105000", "114435.105000", "114437.105000", "114439.105000", "114441.105000", "114443.105000", "114445.105000", "114447.105000", "114449.105000", "114451.105000", "114453.105000", "114455.105000", "114457.105000", "114459.105000", "114501.105000", "114503.105000", "114505.105000", "114507.105000", "114509.105000", "114511.105000", "114513.105000", "114515.105000", "114517.105000", "114519.105000", "114521.105000", "114523.105000", "114525.105000", "114527.105000", "114529.105000", "114531.105000", "114533.105000", "114535.105000"],
      "ContentTime": ["112920.265000", "112920.267000", "112920.269000", "112920.271000", "112920.273000", "112920.275000", "112920.277000", "112920.279000", "112920.281000", "112920.283000", "112920.285000", "112920.287000", "112920.289000", "112920.291000", "112920.293000", "112920.295000", "112920.297000", "112920.299000", "112920.301000", "112920.302000", "112920.304000", "112920.313000", "112920.314000", "112920.316000", "112920.320000", "113000.261000", "113000.263000", "113000.265000", "113000.267000", "113000.269000", "113000.271000", "113000.273000", "113000.275000", "113000.277000", "113000.279000", "113000.281000", "113000.283000", "113000.285000", "113000.287000", "113000.289000", "113000.291000", "113000.293000", "113000.295000", "113000.297000", "113000.299000", "113040.260000", "113040.262000", "113040.264000", "113040.266000", "113040.268000", "113040.270000", "113040.272000", "113040.274000", "113040.276000", "113040.278000", "113040.280000", "113040.282000", "113040.284000", "113040.286000", "113040.288000", "113040.290000", "113040.291000", "113040.293000", "113040.295000", "113040.297000", "113120.260000", "113120.262000", "113120.264000", "113120.266000", "113120.268000", "113120.270000", "113120.272000", "113120.274000", "113120.276000", "113120.278000", "113120.280000", "113120.282000", "113120.284000", "113120.287000", "113120.289000", "113120.291000", "113120.293000", "113120.295000", "113120.297000", "113120.298000", "113200.261000", "113200.263000", "113200.265000", "113200.267000", "113200.269000", "113200.272000", "113200.274000", "113200.276000", "113200.277000", "113200.280000", "113200.281000", "113200.283000", "113200.285000", "113200.287000", "113200.289000", "113200.291000", "113200.293000", "113200.295000", "113200.297000", "113200.299000", "113240.261000", "113240.263000", "113240.265000", "113240.267000", "113240.269000", "113240.271000", "113240.273000", "113240.275000", "113240.277000", "113240.279000", "113240.281000", "113240.283000", "113240.285000", "113240.287000", "113240.289000", "113240.291000", "113240.293000", "113240.295000", "113240.297000", "113240.299000", "113320.260000", "113320.263000", "113320.273000", "113320.275000", "113320.277000", "113320.279000", "113320.281000", "113320.283000", "113320.285000", "113320.287000", "113320.289000", "113320.291000", "113320.293000", "113320.296000", "113320.298000", "113320.299000", "113320.301000", "113320.304000", "113320.305000", "113320.307000", "113400.260000", "113400.262000", "113400.265000", "113400.275000", "113400.277000", "113400.279000", "113400.281000", "113400.283000", "113400.285000", "113400.287000", "113400.289000", "113400.291000", "113400.293000", "113400.296000", "113400.298000", "113400.299000", "113400.301000", "113400.304000", "113400.305000", "113400.307000", "113440.261000", "113440.263000", "113440.265000", "113440.267000", "113440.269000", "113440.272000", "113440.274000", "113440.276000", "113440.277000", "113440.280000", "113440.281000", "113440.283000", "113440.285000", "113440.287000", "113440.289000", "113440.291000", "113440.293000", "113440.295000", "113440.297000", "113440.299000", "113520.260000", "113520.263000", "113520.265000", "113520.267000", "113520.269000", "113520.271000", "113520.272000", "113520.274000", "113520.292000", "113520.294000", "113520.296000", "113520.298000", "113520.300000", "113520.302000", "113520.304000", "113520.305000", "113520.307000", "113520.309000", "113520.311000", "113520.313000", "113600.260000", "113600.263000", "113600.265000", "113600.267000", "113600.269000", "113600.271000", "113600.273000", "113600.275000", "113600.277000", "113600.279000", "113600.281000", "113600.283000", "113600.285000", "113600.287000", "113600.289000", "113600.291000", "113600.293000", "113600.295000", "113600.297000", "113600.299000", "113640.261000", "113640.264000", "113640.266000", "113640.268000", "113640.270000", "113640.272000", "113640.274000", "113640.276000", "113640.278000", "113640.280000", "113640.282000", "113640.284000", "113640.286000", "113640.288000", "113640.290000", "113640.292000", "113640.294000", "113640.296000", "113640.298000", "113640.300000", "113720.261000", "113720.263000", "113720.265000", "113720.267000", "113720.269000", "113720.272000", "113720.274000", "113720.276000", "113720.278000", "113720.280000", "113720.282000", "113720.284000", "113720.286000", "113720.288000", "113720.290000", "113720.292000", "113720.294000", "113720.296000", "113720.298000", "113720.300000", "113800.260000", "113800.263000", "113800.265000", "113800.267000", "113800.269000", "113800.271000", "113800.273000", "113800.275000", "113800.277000", "113800.279000", "113800.281000", "113800.283000", "113800.285000", "113800.287000", "113800.289000", "113800.291000", "113800.293000", "113800.295000", "113800.297000", "113800.299000", "113840.260000", "113840.263000", "113840.265000", "113840.267000", "113840.269000", "113840.271000", "113840.273000", "113840.275000", "113840.277000", "113840.279000", "113840.281000", "113840.283000", "113840.285000", "113840.287000", "113840.289000", "113840.291000", "113840.293000", "113840.295000", "113840.297000", "113840.299000", "113920.261000", "113920.264000", "113920.266000", "113920.268000", "113920.270000", "113920.272000", "113920.274000", "113920.276000", "113920.278000", "113920.280000", "113920.282000", "113920.284000", "113920.285000", "113920.288000", "113920.290000", "113920.292000", "113920.294000", "113920.296000", "113920.298000", "113920.300000", "114000.260000", "114000.263000", "114000.265000", "114000.267000", "114000.269000", "114000.271000", "114000.273000", "114000.275000", "114000.277000", "114000.279000", "114000.281000", "114000.283000", "114000.285000", "114000.287000", "114000.289000", "114000.291000", "114000.293000", "114000.295000", "114000.297000", "114000.299000", "114040.260000", "114040.263000", "114040.265000", "114040.267000", "114040.269000", "114040.271000", "114040.273000", "114040.275000", "114040.277000", "114040.279000", "114040.281000", "114040.282000", "114040.284000", "114040.286000", "114040.288000", "114040.290000", "114040.292000", "114040.295000", "114040.297000", "114040.298000", "114120.261000", "114120.264000", "114120.266000", "114120.268000", "114120.269000", "114120.272000", "114120.274000", "114120.275000", "114120.277000", "114120.279000", "114120.281000", "114120.283000", "114120.285000", "114120.287000", "114120.289000", "114120.291000", "114120.293000", "114120.295000", "114120.297000", "114120.299000", "114200.261000", "114200.264000", "114200.266000", "114200.268000", "114200.270000", "114200.272000", "114200.274000", "114200.276000", "114200.278000", "114200.280000", "114200.282000", "114200.284000", "114200.286000", "114200.288000", "114200.290000", "114200.292000", "114200.294000", "114200.296000", "114200.298000", "114200.300000", "114240.260000", "114240.263000", "114240.265000", "114240.267000", "114240.269000", "114240.271000", "114240.273000", "114240.275000", "114240.276000", "114240.279000", "114240.281000", "114240.283000", "114240.285000", "114240.287000", "114240.289000", "114240.291000", "114240.293000", "114240.295000", "114240.297000", "114240.299000", "114320.260000", "114320.263000", "114320.265000", "114320.267000", "114320.269000", "114320.271000", "114320.273000", "114320.275000", "114320.277000", "114320.279000", "114320.281000", "114320.283000", "114320.285000", "114320.287000", "114320.289000", "114320.291000", "114320.293000", "114320.295000", "114320.297000", "114320.299000", "114400.261000", "114400.264000", "114400.265000", "114400.267000", "114400.270000", "114400.272000", "114400.274000", "114400.276000", "114400.278000", "114400.280000", "114400.282000", "114400.284000", "114400.286000", "114400.288000", "114400.290000", "114400.292000", "114400.294000", "114400.296000", "114400.298000", "114400.300000", "114440.260000", "114440.262000", "114440.265000", "114440.266000", "114440.269000", "114440.271000", "114440.272000", "114440.274000", "114440.277000", "114440.279000", "114440.281000", "114440.283000", "114440.285000", "114440.287000", "114440.289000", "114440.291000", "114440.293000", "114440.295000", "114440.297000", "114440.299000", "114520.260000", "114520.262000", "114520.264000", "114520.266000", "114520.268000", "114520.270000", "114520.272000", "114520.274000", "114520.276000", "114520.278000", "114520.280000", "114520.282000", "114520.284000", "114520.286000", "114520.288000", "114520.290000", "114520.292000", "114520.294000", "114520.296000", "114520.298000", "114536.801000", "114536.803000", "114536.805000", "114536.807000", "114536.809000", "114536.811000", "114536.813000", "114536.815000", "114536.817000"],
