{
  "AcquisitionMatrixPE": 64,
  "AcquisitionNumber": 1,
  "AcquisitionTime": "12:00:51.905000",
  "BandwidthPerPixelPhaseEncode": 25.202,
  "BaseResolution": 64,
  "BodyPartExamined": "BRAIN",
  "ConsistencyInfo": "N4_VD13C_LATEST_20121124",
  "ConversionSoftware": "dcm2niix",
  "ConversionSoftwareVersion": "v1.0.20201102",
  "DerivedVendorReportedEchoSpacing": 0.00061999,
  "DeviceSerialNumber": "45758",
  "DwellTime": 4.3e-06,
  "EchoTime": 0.03,
  "EchoTrainLength": 64,
  "EffectiveEchoSpacing": 0.00061999,
  "FlipAngle": 90,
  "ImageOrientationPatientDICOM": [0.99985, -0.0157279, -0.00722834, 0.0157069, 0.999872, -0.00295658],
  "ImageType": [
    "ORIGINAL",
    "PRIMARY",
    "M",
    "ND",
    "MOSAIC"
],
  "ImagingFrequency": 123.2,
  "InPlanePhaseEncodingDirectionDICOM": "ROW",
  "InstitutionAddress": "Street StreetNo,City /652E4B/,District,KR,ZIP",
  "InstitutionName": "DGMIF",
  "InstitutionalDepartmentName": "Department",
  "MRAcquisitionType": "2D",
  "MagneticFieldStrength": 3,
  "Manufacturer": "Siemens",
  "ManufacturersModelName": "Skyra",
  "Modality": "MR",
  "PartialFourier": 1,
  "PatientPosition": "HFS",
  "PercentPhaseFOV": 100,
  "PercentSampling": 100,
  "PhaseEncodingDirection": "i",
  "PhaseEncodingSteps": 64,
  "PhaseResolution": 1,
  "PixelBandwidth": 1815,
  "ProcedureStepDescription": "DGMIF^DGIST_Jeon",
  "ProtocolName": "EPI_DGIST_3",
  "PulseSequenceDetails": "%SiemensSeq%\\ep2d_bold",
  "ReceiveCoilActiveElements": "HC1-7",
  "ReceiveCoilName": "HeadNeck_64",
  "ReconMatrixPE": 64,
  "RepetitionTime": 2,
  "SAR": 0.116422,
  "ScanOptions": "FS",
  "ScanningSequence": "EP",
  "SequenceName": "*epfid2d1_64",
  "SequenceVariant": "SK",
  "SeriesDescription": "EPI_DGIST_3",
  "SeriesNumber": 4,
  "ShimSetting": [-9706, -13583, -8566, 264, -444, -578, -1062, -103],
  "SliceThickness": 4,
  "SliceTiming": [0.99, 0, 1.0575, 0.0675, 1.1225, 0.1325, 1.1875, 0.1975, 1.255, 0.265, 1.32, 0.33, 1.3875, 0.3975, 1.4525, 0.4625, 1.5175, 0.5275, 1.585, 0.595, 1.65, 0.66, 1.7175, 0.7275, 1.7825, 0.7925, 1.8475, 0.8575, 1.915, 0.925],
  "SoftwareVersions": "syngo MR D13C",
  "SpacingBetweenSlices": 4.8,
  "StationName": "AWP45758",
  "TaskName": "asrt",
  "TotalReadoutTime": 0.0390594,
  "TxRefAmp": 304.263,
  "dcmmeta_affine": [
    [-2.9995505809783936, 0.047120705246925354, -0.03491479903459549, 93.1978759765625],
    [0.04718378558754921, 2.999616861343384, -0.013644489459693432, -127.9190902709961],
    [-0.02168501541018486, 0.00886973924934864, 4.799853801727295, -88.70928955078125],
    [0.0, 0.0, 0.0, 1.0]
],
  "dcmmeta_reorient_transform": [
    [0.0, -1.0, 0.0, 63.0],
    [1.0, 0.0, 0.0, 0.0],
    [0.0, 0.0, 1.0, 0.0],
    [0.0, 0.0, 0.0, 1.0]
],
  "dcmmeta_shape": [64, 64, 30, 364],
  "dcmmeta_slice_dim": 2,
  "dcmmeta_version": 0.6,
  "global": {
    "const": {
      "AcquisitionMatrix": [0, 64, 64, 0],
      "AngioFlag": "N",
      "BitsAllocated": 16,
      "BitsStored": 12,
      "BodyPartExamined": "BRAIN",
      "Columns": 384,
      "EchoNumbers": 1,
      "EchoTime": 30.0,
      "EchoTrainLength": 64,
      "FlipAngle": 90.0,
      "HighBit": 11,
      "ImageOrientationPatient": [0.99985018046791, -0.0157279286784, -0.0072283385209, 0.01570690175748, 0.99987226777931, -0.0029565796199],
      "ImagePositionPatient": [-583.63387731333, -533.44605014975, -83.261737272926],
      "ImageType": [
        "ORIGINAL",
        "PRIMARY",
        "M",
        "ND",
        "MOSAIC"
],
      "ImagedNucleus": "1H",
      "ImagingFrequency": 123.20039,
      "InPlanePhaseEncodingDirection": "ROW",
      "MRAcquisitionType": "2D",
      "MagneticFieldStrength": 3.0,
      "Manufacturer": "SIEMENS",
      "ManufacturerModelName": "Skyra",
      "Modality": "MR",
      "NumberOfAverages": 1.0,
      "NumberOfPhaseEncodingSteps": 64,
      "PercentPhaseFieldOfView": 100.0,
      "PercentSampling": 100.0,
      "PerformedProcedureStepStartTime": "110539.029000",
      "PhotometricInterpretation": "MONOCHROME2",
      "PixelBandwidth": 1815.0,
      "PixelRepresentation": 0,
      "PixelSpacing": [3.0, 3.0],
      "ProtocolName": "EPI_DGIST_3",
      "RepetitionTime": 2000.0,
      "Rows": 384,
      "SAR": 0.11642214931987,
      "SamplesPerPixel": 1,
      "ScanOptions": "FS",
      "ScanningSequence": "EP",
      "SequenceName": "*epfid2d1_64",
      "SequenceVariant": "SK",
      "SeriesDescription": "EPI_DGIST_3",
      "SeriesNumber": 4,
      "SeriesTime": "120107.273000",
      "SliceLocation": -89.020876751975,
      "SliceThickness": 4.0,
      "SmallestImagePixelValue": 0,
      "SoftwareVersions": "syngo MR D13C",
      "SpacingBetweenSlices": 4.800000131281,
      "SpecificCharacterSet": "ISO_IR 100",
      "StudyID": "1",
      "StudyTime": "110538.943000",
      "TimeOfLastCalibration": ["123723.000000", "123723.000000"],
      "TransmitCoilName": "Body",
      "VariableFlipAngleFlag": "N",
      "WindowCenterWidthExplanation": "Algo1",
      "dBdt": 0.0},
    "slices": {}
  },
  "time": {
    "samples": {
      "AcquisitionNumber": [1, 2, 3, 4, 5, 6, 7, 8, 9, 10, 11, 12, 13, 14, 15, 16, 17, 18, 19, 20, 21, 22, 23, 24, 25, 26, 27, 28, 29, 30, 31, 32, 33, 34, 35, 36, 37, 38, 39, 40, 41, 42, 43, 44, 45, 46, 47, 48, 49, 50, 51, 52, 53, 54, 55, 56, 57, 58, 59, 60, 61, 62, 63, 64, 65, 66, 67, 68, 69, 70, 71, 72, 73, 74, 75, 76, 77, 78, 79, 80, 81, 82, 83, 84, 85, 86, 87, 88, 89, 90, 91, 92, 93, 94, 95, 96, 97, 98, 99, 100, 101, 102, 103, 104, 105, 106, 107, 108, 109, 110, 111, 112, 113, 114, 115, 116, 117, 118, 119, 120, 121, 122, 123, 124, 125, 126, 127, 128, 129, 130, 131, 132, 133, 134, 135, 136, 137, 138, 139, 140, 141, 142, 143, 144, 145, 146, 147, 148, 149, 150, 151, 152, 153, 154, 155, 156, 157, 158, 159, 160, 161, 162, 163, 164, 165, 166, 167, 168, 169, 170, 171, 172, 173, 174, 175, 176, 177, 178, 179, 180, 181, 182, 183, 184, 185, 186, 187, 188, 189, 190, 191, 192, 193, 194, 195, 196, 197, 198, 199, 200, 201, 202, 203, 204, 205, 206, 207, 208, 209, 210, 211, 212, 213, 214, 215, 216, 217, 218, 219, 220, 221, 222, 223, 224, 225, 226, 227, 228, 229, 230, 231, 232, 233, 234, 235, 236, 237, 238, 239, 240, 241, 242, 243, 244, 245, 246, 247, 248, 249, 250, 251, 252, 253, 254, 255, 256, 257, 258, 259, 260, 261, 262, 263, 264, 265, 266, 267, 268, 269, 270, 271, 272, 273, 274, 275, 276, 277, 278, 279, 280, 281, 282, 283, 284, 285, 286, 287, 288, 289, 290, 291, 292, 293, 294, 295, 296, 297, 298, 299, 300, 301, 302, 303, 304, 305, 306, 307, 308, 309, 310, 311, 312, 313, 314, 315, 316, 317, 318, 319, 320, 321, 322, 323, 324, 325, 326, 327, 328, 329, 330, 331, 332, 333, 334, 335, 336, 337, 338, 339, 340, 341, 342, 343, 344, 345, 346, 347, 348, 349, 350, 351, 352, 353, 354, 355, 356, 357, 358, 359, 360, 361, 362, 363, 364],
      "AcquisitionTime": ["120051.905000", "120053.905000", "120055.905000", "120057.905000", "120059.905000", "120101.905000", "120103.905000", "120105.905000", "120107.905000", "120109.905000", "120111.905000", "120113.905000", "120115.905000", "120117.905000", "120119.905000", "120121.905000", "120123.905000", "120125.905000", "120127.905000", "120129.905000", "120131.905000", "120133.905000", "120135.905000", "120137.905000", "120139.905000", "120141.905000", "120143.905000", "120145.905000", "120147.905000", "120149.905000", "120151.905000", "120153.905000", "120155.905000", "120157.905000", "120159.905000", "120201.905000", "120203.905000", "120205.905000", "120207.905000", "120209.905000", "120211.905000", "120213.905000", "120215.905000", "120217.905000", "120219.905000", "120221.905000", "120223.905000", "120225.905000", "120227.905000", "120229.905000", "120231.905000", "120233.905000", "120235.905000", "120237.905000", "120239.905000", "120241.905000", "120243.905000", "120245.905000", "120247.905000", "120249.905000", "120251.905000", "120253.905000", "120255.905000", "120257.905000", "120259.905000", "120301.907500", "120303.907500", "120305.907500", "120307.907500", "120309.907500", "120311.907500", "120313.907500", "120315.907500", "120317.907500", "120319.907500", "120321.907500", "120323.907500", "120325.907500", "120327.907500", "120329.907500", "120331.907500", "120333.907500", "120335.907500", "120337.907500", "120339.907500", "120341.907500", "120343.907500", "120345.907500", "120347.907500", "120349.907500", "120351.907500", "120353.907500", "120355.907500", "120357.907500", "120359.907500", "120401.907500", "120403.907500", "120405.907500", "120407.907500", "120409.907500", "120411.907500", "120413.907500", "120415.907500", "120417.907500", "120419.907500", "120421.907500", "120423.907500", "120425.907500", "120427.907500", "120429.907500", "120431.907500", "120433.907500", "120435.907500", "120437.907500", "120439.907500", "120441.907500", "120443.907500", "120445.907500", "120447.907500", "120449.907500", "120451.907500", "120453.907500", "120455.907500", "120457.907500", "120459.907500", "120501.907500", "120503.907500", "120505.907500", "120507.907500", "120509.907500", "120511.907500", "120513.907500", "120515.907500", "120517.907500", "120519.907500", "120521.907500", "120523.907500", "120525.907500", "120527.907500", "120529.907500", "120531.907500", "120533.907500", "120535.907500", "120537.907500", "120539.907500", "120541.907500", "120543.907500", "120545.907500", "120547.907500", "120549.907500", "120551.907500", "120553.907500", "120555.907500", "120557.907500", "120559.907500", "120601.907500", "120603.907500", "120605.907500", "120607.907500", "120609.907500", "120611.907500", "120613.907500", "120615.907500", "120617.907500", "120619.907500", "120621.907500", "120623.907500", "120625.907500", "120627.907500", "120629.907500", "120631.907500", "120633.907500", "120635.907500", "120637.907500", "120639.907500", "120641.907500", "120643.907500", "120645.907500", "120647.907500", "120649.907500", "120651.907500", "120653.907500", "120655.907500", "120657.907500", "120659.907500", "120701.907500", "120703.907500", "120705.907500", "120707.907500", "120709.907500", "120711.907500", "120713.907500", "120715.907500", "120717.907500", "120719.907500", "120721.907500", "120723.907500", "120725.907500", "120727.907500", "120729.907500", "120731.907500", "120733.907500", "120735.907500", "120737.907500", "120739.907500", "120741.907500", "120743.907500", "120745.907500", "120747.907500", "120749.907500", "120751.907500", "120753.907500", "120755.907500", "120757.907500", "120759.907500", "120801.907500", "120803.907500", "120805.907500", "120807.907500", "120809.907500", "120811.907500", "120813.907500", "120815.907500", "120817.907500", "120819.907500", "120821.907500", "120823.907500", "120825.907500", "120827.907500", "120829.907500", "120831.907500", "120833.907500", "120835.907500", "120837.907500", "120839.907500", "120841.907500", "120843.907500", "120845.907500", "120847.907500", "120849.907500", "120851.907500", "120853.907500", "120855.907500", "120857.907500", "120859.907500", "120901.907500", "120903.907500", "120905.907500", "120907.907500", "120909.907500", "120911.907500", "120913.907500", "120915.907500", "120917.907500", "120919.907500", "120921.907500", "120923.907500", "120925.907500", "120927.907500", "120929.907500", "120931.907500", "120933.907500", "120935.907500", "120937.907500", "120939.907500", "120941.907500", "120943.907500", "120945.907500", "120947.907500", "120949.907500", "120951.907500", "120953.907500", "120955.907500", "120957.907500", "120959.907500", "121001.907500", "121003.907500", "121005.907500", "121007.907500", "121009.907500", "121011.907500", "121013.907500", "121015.907500", "121017.907500", "121019.907500", "121021.907500", "121023.907500", "121025.907500", "121027.907500", "121029.907500", "121031.907500", "121033.907500", "121035.907500", "121037.907500", "121039.907500", "121041.907500", "121043.907500", "121045.907500", "121047.907500", "121049.907500", "121051.907500", "121053.907500", "121055.907500", "121057.907500", "121059.907500", "121101.907500", "121103.907500", "121105.907500", "121107.907500", "121109.907500", "121111.907500", "121113.907500", "121115.907500", "121117.907500", "121119.907500", "121121.910000", "121123.910000", "121125.910000", "121127.910000", "121129.910000", "121131.910000", "121133.910000", "121135.910000", "121137.910000", "121139.910000", "121141.910000", "121143.910000", "121145.910000", "121147.910000", "121149.910000", "121151.910000", "121153.910000", "121155.910000", "121157.910000", "121159.910000", "121201.910000", "121203.910000", "121205.910000", "121207.910000", "121209.910000", "121211.910000", "121213.910000", "121215.910000", "121217.910000", "121219.910000", "121221.910000", "121223.910000", "121225.910000", "121227.910000", "121229.910000", "121231.910000", "121233.910000", "121235.910000", "121237.910000", "121239.910000", "121241.910000", "121243.910000", "121245.910000", "121247.910000", "121249.910000", "121251.910000", "121253.910000", "121255.910000", "121257.910000"],
      "ContentTime": ["120107.276000", "120107.279000", "120107.281000", "120107.283000", "120107.285000", "120107.287000", "120107.294000", "120147.258000", "120147.260000", "120147.262000", "120147.264000", "120147.267000", "120147.269000", "120147.270000", "120147.280000", "120147.282000", "120147.284000", "120147.286000", "120147.288000", "120147.290000", "120147.292000", "120147.299000", "120147.301000", "120147.307000", "120147.309000", "120147.311000", "120147.313000", "120227.258000", "120227.260000", "120227.263000", "120227.264000", "120227.267000", "120227.269000", "120227.271000", "120227.273000", "120227.275000", "120227.277000", "120227.279000", "120227.281000", "120227.283000", "120227.285000", "120227.287000", "120227.289000", "120227.291000", "120227.293000", "120227.295000", "120227.296000", "120307.257000", "120307.259000", "120307.261000", "120307.263000", "120307.266000", "120307.268000", "120307.270000", "120307.272000", "120307.274000", "120307.275000", "120307.277000", "120307.279000", "120307.281000", "120307.283000", "120307.285000", "120307.287000", "120307.289000", "120307.291000", "120307.293000", "120307.295000", "120347.258000", "120347.260000", "120347.262000", "120347.264000", "120347.267000", "120347.269000", "120347.271000", "120347.272000", "120347.275000", "120347.276000", "120347.278000", "120347.280000", "120347.282000", "120347.284000", "120347.286000", "120347.288000", "120347.290000", "120347.292000", "120347.294000", "120347.296000", "120427.258000", "120427.260000", "120427.262000", "120427.264000", "120427.266000", "120427.268000", "120427.270000", "120427.280000", "120427.282000", "120427.284000", "120427.286000", "120427.288000", "120427.290000", "120427.292000", "120427.294000", "120427.296000", "120427.298000", "120427.300000", "120427.302000", "120427.304000", "120507.258000", "120507.260000", "120507.262000", "120507.264000", "120507.267000", "120507.269000", "120507.270000", "120507.272000", "120507.275000", "120507.277000", "120507.279000", "120507.281000", "120507.283000", "120507.285000", "120507.286000", "120507.288000", "120507.290000", "120507.292000", "120507.294000", "120507.296000", "120547.258000", "120547.260000", "120547.262000", "120547.264000", "120547.267000", "120547.269000", "120547.271000", "120547.273000", "120547.275000", "120547.277000", "120547.278000", "120547.280000", "120547.282000", "120547.284000", "120547.286000", "120547.288000", "120547.290000", "120547.292000", "120547.294000", "120547.296000", "120627.258000", "120627.260000", "120627.262000", "120627.264000", "120627.266000", "120627.268000", "120627.270000", "120627.272000", "120627.274000", "120627.276000", "120627.278000", "120627.280000", "120627.282000", "120627.284000", "120627.286000", "120627.288000", "120627.290000", "120627.292000", "120627.294000", "120627.296000", "120707.258000", "120707.261000", "120707.263000", "120707.265000", "120707.273000", "120707.275000", "120707.277000", "120707.279000", "120707.281000", "120707.283000", "120707.285000", "120707.287000", "120707.289000", "120707.291000", "120707.292000", "120707.294000", "120707.296000", "120707.298000", "120707.300000", "120707.302000", "120747.257000", "120747.259000", "120747.261000", "120747.263000", "120747.266000", "120747.268000", "120747.270000", "120747.272000", "120747.279000", "120747.281000", "120747.282000", "120747.284000", "120747.287000", "120747.296000", "120747.298000", "120747.300000", "120747.302000", "120747.304000", "120747.306000", "120747.308000", "120827.258000", "120827.260000", "120827.262000", "120827.264000", "120827.266000", "120827.268000", "120827.270000", "120827.272000", "120827.275000", "120827.277000", "120827.279000", "120827.280000", "120827.283000", "120827.284000", "120827.286000", "120827.288000", "120827.290000", "120827.292000", "120827.294000", "120827.296000", "120907.258000", "120907.260000", "120907.262000", "120907.264000", "120907.267000", "120907.269000", "120907.271000", "120907.272000", "120907.278000", "120907.280000", "120907.282000", "120907.284000", "120907.286000", "120907.288000", "120907.290000", "120907.292000", "120907.294000", "120907.296000", "120907.298000", "120907.300000", "120947.257000", "120947.259000", "120947.261000", "120947.263000", "120947.266000", "120947.267000", "120947.269000", "120947.271000", "120947.274000", "120947.276000", "120947.278000", "120947.280000", "120947.282000", "120947.284000", "120947.285000", "120947.287000", "120947.290000", "120947.298000", "120947.300000", "120947.302000", "121007.257000", "121007.259000", "121007.261000", "121007.263000", "121007.266000", "121007.268000", "121007.270000", "121007.271000", "121007.274000", "121007.276000", "121047.258000", "121047.260000", "121047.262000", "121047.264000", "121047.266000", "121047.268000", "121047.270000", "121047.272000", "121047.274000", "121047.276000", "121047.279000", "121047.280000", "121047.282000", "121047.284000", "121047.286000", "121047.288000", "121047.290000", "121047.292000", "121047.294000", "121047.296000", "121127.269000", "121127.271000", "121127.274000", "121127.276000", "121127.278000", "121127.280000", "121127.282000", "121127.284000", "121127.286000", "121127.287000", "121127.289000", "121127.291000", "121127.293000", "121127.295000", "121127.297000", "121127.299000", "121127.301000", "121127.303000", "121127.305000", "121127.307000", "121207.257000", "121207.259000", "121207.262000", "121207.264000", "121207.266000", "121207.268000", "121207.270000", "121207.272000", "121207.274000", "121207.276000", "121207.278000", "121207.280000", "121207.282000", "121207.284000", "121207.286000", "121207.288000", "121207.289000", "121207.297000", "121207.299000", "121207.301000", "121247.258000", "121247.260000", "121247.263000", "121247.265000", "121247.267000", "121247.268000", "121247.271000", "121247.273000", "121247.274000", "121247.276000", "121247.279000", "121247.280000", "121247.282000", "121247.284000", "121247.286000", "121247.288000", "121247.290000", "121247.292000", "121247.295000", "121247.297000", "121259.528000", "121259.530000", "121259.532000", "121259.534000", "121259.536000", "121259.538000", "121259.540000"],
      "InstanceCreationTime": ["120107.276000", "120107.279000", "120107.281000", "120107.283000", "120107.285000", "120107.287000", "120107.294000", "120147.258000", "120147.260000", "120147.262000", "120147.264000", "120147.267000", "120147.269000", "120147.270000", "120147.280000", "120147.282000", "120147.284000", "120147.286000", "120147.288000", "120147.290000", "120147.292000", "120147.299000", "120147.301000", "120147.307000", "120147.309000", "120147.311000", "120147.313000", "120227.258000", "120227.260000", "120227.263000", "120227.264000", "120227.267000", "120227.269000", "120227.271000", "120227.273000", "120227.275000", "120227.277000", "120227.279000", "120227.281000", "120227.283000", "120227.285000", "120227.287000", "120227.289000", "120227.291000", "120227.293000", "120227.295000", "120227.296000", "120307.257000", "120307.259000", "120307.261000", "120307.263000", "120307.266000", "120307.268000", "120307.270000", "120307.272000", "120307.274000", "120307.275000", "120307.277000", "120307.279000", "120307.281000", "120307.283000", "120307.285000", "120307.287000", "120307.289000", "120307.291000", "120307.293000", "120307.295000", "120347.258000", "120347.260000", "120347.262000", "120347.264000", "120347.267000", "120347.269000", "120347.271000", "120347.272000", "120347.275000", "120347.276000", "120347.278000", "120347.280000", "120347.282000", "120347.284000", "120347.286000", "120347.288000", "120347.290000", "120347.292000", "120347.294000", "120347.296000", "120427.258000", "120427.260000", "120427.262000", "120427.264000", "120427.266000", "120427.268000", "120427.270000", "120427.280000", "120427.282000", "120427.284000", "120427.286000", "120427.288000", "120427.290000", "120427.292000", "120427.294000", "120427.296000", "120427.298000", "120427.300000", "120427.302000", "120427.304000", "120507.258000", "120507.260000", "120507.262000", "120507.264000", "120507.267000", "120507.269000", "120507.270000", "120507.272000", "120507.275000", "120507.277000", "120507.279000", "120507.281000", "120507.283000", "120507.285000", "120507.286000", "120507.288000", "120507.290000", "120507.292000", "120507.294000", "120507.296000", "120547.258000", "120547.260000", "120547.262000", "120547.264000", "120547.267000", "120547.269000", "120547.271000", "120547.273000", "120547.275000", "120547.277000", "120547.278000", "120547.280000", "120547.282000", "120547.284000", "120547.286000", "120547.288000", "120547.290000", "120547.292000", "120547.294000", "120547.296000", "120627.258000", "120627.260000", "120627.262000", "120627.264000", "120627.266000", "120627.268000", "120627.270000", "120627.272000", "120627.274000", "120627.276000", "120627.278000", "120627.280000", "120627.282000", "120627.284000", "120627.286000", "120627.288000", "120627.290000", "120627.292000", "120627.294000", "120627.296000", "120707.258000", "120707.261000", "120707.263000", "120707.265000", "120707.273000", "120707.275000", "120707.277000", "120707.279000", "120707.281000", "120707.283000", "120707.285000", "120707.287000", "120707.289000", "120707.291000", "120707.292000", "120707.294000", "120707.296000", "120707.298000", "120707.300000", "120707.302000", "120747.257000", "120747.259000", "120747.261000", "120747.263000", "120747.266000", "120747.268000", "120747.270000", "120747.272000", "120747.279000", "120747.281000", "120747.282000", "120747.284000", "120747.287000", "120747.296000", "120747.298000", "120747.300000", "120747.302000", "120747.304000", "120747.306000", "120747.308000", "120827.258000", "120827.260000", "120827.262000", "120827.264000", "120827.266000", "120827.268000", "120827.270000", "120827.272000", "120827.275000", "120827.277000", "120827.279000", "120827.280000", "120827.283000", "120827.284000", "120827.286000", "120827.288000", "120827.290000", "120827.292000", "120827.294000", "120827.296000", "120907.258000", "120907.260000", "120907.262000", "120907.264000", "120907.267000", "120907.269000", "120907.271000", "120907.272000", "120907.278000", "120907.280000", "120907.282000", "120907.284000", "120907.286000", "120907.288000", "120907.290000", "120907.292000", "120907.294000", "120907.296000", "120907.298000", "120907.300000", "120947.257000", "120947.259000", "120947.261000", "120947.263000", "120947.266000", "120947.267000", "120947.269000", "120947.271000", "120947.274000", "120947.276000", "120947.278000", "120947.280000", "120947.282000", "120947.284000", "120947.285000", "120947.287000", "120947.290000", "120947.298000", "120947.300000", "120947.302000", "121007.257000", "121007.259000", "121007.261000", "121007.263000", "121007.266000", "121007.268000", "121007.270000", "121007.271000", "121007.274000", "121007.276000", "121047.258000", "121047.260000", "121047.262000", "121047.264000", "121047.266000", "121047.268000", "121047.270000", "121047.272000", "121047.274000", "121047.276000", "121047.279000", "121047.280000", "121047.282000", "121047.284000", "121047.286000", "121047.288000", "121047.290000", "121047.292000", "121047.294000", "121047.296000", "121127.269000", "121127.271000", "121127.274000", "121127.276000", "121127.278000", "121127.280000", "121127.282000", "121127.284000", "121127.286000", "121127.287000", "121127.289000", "121127.291000", "121127.293000", "121127.295000", "121127.297000", "121127.299000", "121127.301000", "121127.303000", "121127.305000", "121127.307000", "121207.257000", "121207.259000", "121207.262000", "121207.264000", "121207.266000", "121207.268000", "121207.270000", "121207.272000", "121207.274000", "121207.276000", "121207.278000", "121207.280000", "121207.282000", "121207.284000", "121207.286000", "121207.288000", "121207.289000", "121207.297000", "121207.299000", "121207.301000", "121247.258000", "121247.260000", "121247.263000", "121247.265000", "121247.267000", "121247.268000", "121247.271000", "121247.273000", "121247.274000", "121247.276000", "121247.279000", "121247.280000", "121247.282000", "121247.284000", "121247.286000", "121247.288000", "121247.290000", "121247.292000", "121247.295000", "121247.297000", "121259.528000", "121259.530000", "121259.532000", "121259.534000", "121259.536000", "121259.538000", "121259.540000"],
      "InstanceNumber": [1, 2, 3, 4, 5, 6, 7, 8, 9, 10, 11, 12, 13, 14, 15, 16, 17, 18, 19, 20, 21, 22, 23, 24, 25, 26, 27, 28, 29, 30, 31, 32, 33, 34, 35, 36, 37, 38, 39, 40, 41, 42, 43, 44, 45, 46, 47, 48, 49, 50, 51, 52, 53, 54, 55, 56, 57, 58, 59, 60, 61, 62, 63, 64, 65, 66, 67, 68, 69, 70, 71, 72, 73, 74, 75, 76, 77, 78, 79, 80, 81, 82, 83, 84, 85, 86, 87, 88, 89, 90, 91, 92, 93, 94, 95, 96, 97, 98, 99, 100, 101, 102, 103, 104, 105, 106, 107, 108, 109, 110, 111, 112, 113, 114, 115, 116, 117, 118, 119, 120, 121, 122, 123, 124, 125, 126, 127, 128, 129, 130, 131, 132, 133, 134, 135, 136, 137, 138, 139, 140, 141, 142, 143, 144, 145, 146, 147, 148, 149, 150, 151, 152, 153, 154, 155, 156, 157, 158, 159, 160, 161, 162, 163, 164, 165, 166, 167, 168, 169, 170, 171, 172, 173, 174, 175, 176, 177, 178, 179, 180, 181, 182, 183, 184, 185, 186, 187, 188, 189, 190, 191, 192, 193, 194, 195, 196, 197, 198, 199, 200, 201, 202, 203, 204, 205, 206, 207, 208, 209, 210, 211, 212, 213, 214, 215, 216, 217, 218, 219, 220, 221, 222, 223, 224, 225, 226, 227, 228, 229, 230, 231, 232, 233, 234, 235, 236, 237, 238, 239, 240, 241, 242, 243, 244, 245, 246, 247, 248, 249, 250, 251, 252, 253, 254, 255, 256, 257, 258, 259, 260, 261, 262, 263, 264, 265, 266, 267, 268, 269, 270, 271, 272, 273, 274, 275, 276, 277, 278, 279, 280, 281, 282, 283, 284, 285, 286, 287, 288, 289, 290, 291, 292, 293, 294, 295, 296, 297, 298, 299, 300, 301, 302, 303, 304, 305, 306, 307, 308, 309, 310, 311, 312, 313, 314, 315, 316, 317, 318, 319, 320, 321, 322, 323, 324, 325, 326, 327, 328, 329, 330, 331, 332, 333, 334, 335, 336, 337, 338, 339, 340, 341, 342, 343, 344, 345, 346, 347, 348, 349, 350, 351, 352, 353, 354, 355, 356, 357, 358, 359, 360, 361, 362, 363, 364],
      "LargestImagePixelValue": [2039, 2039, 2039, 2054, 2054, 2053, 2054, 2049, 2055, 2053, 2047, 2051, 2041, 2039, 2045, 2046, 2047, 2033, 2039, 2040, 2049, 2044, 2041, 2049, 2048, 2052, 2043, 2050, 2041, 2052, 2041, 2035, 2035, 2036, 2039, 2038, 2040, 2043, 2057, 2054, 2045, 2048, 2047, 2042, 2040, 2033, 2052, 2048, 2047, 2044, 2040, 2045, 2039, 2045, 2047, 2047, 2049, 2057, 2057, 2044, 2045, 2038, 2048, 2046, 2042, 2050, 2066, 2056, 2046, 2037, 2039, 2046, 2040, 2032, 2046, 2046, 2040, 2035, 2034, 2040, 2038, 2045, 2045, 2047, 2038, 2047, 2058, 2056, 2049, 2049, 2033, 2031, 2032, 2024, 2029, 2038, 2056, 2044, 2038, 2048, 2054, 2054, 2043, 2039, 2040, 2034, 2041, 2045, 2047, 2044, 2042, 2046, 2047, 2044, 2046, 2042, 2044, 2044, 2053, 2059, 2049, 2041, 2045, 2040, 2041, 2044, 2053, 2050, 2054, 2053, 2056, 2062, 2048, 2038, 2052, 2049, 2057, 2053, 2054, 2057, 2052, 2056, 2062, 2066, 2061, 2061, 2061, 2064, 2054, 2056, 2046, 2047, 2039, 2052, 2039, 2047, 2061, 2055, 2058, 2052, 2051, 2053, 2064, 2054, 2070, 2062, 2060, 2067, 2068, 2064, 2055, 2059, 2057, 2057, 2057, 2063, 2065, 2056, 2053, 2061, 2055, 2066, 2065, 2058, 2037, 2033, 2038, 2043, 2038, 2056, 2051, 2049, 2057, 2042, 2057, 2050, 2048, 2053, 2043, 2042, 2043, 2047, 2057, 2053, 2058, 2066, 2061, 2058, 2053, 2048, 2049, 2031, 2030, 2030, 2033, 2033, 2045, 2047, 2051, 2064, 2055, 2055, 2055, 2062, 2054, 2045, 2057, 2052, 2056, 2057, 2053, 2055, 2059, 2055, 2057, 2057, 2063, 2049, 2049, 2053, 2054, 2053, 2039, 2037, 2036, 2044, 2056, 2060, 2054, 2057, 2059, 2057, 2049, 2050, 2058, 2055, 2056, 2058, 2044, 2040, 2046, 2048, 2060, 2054, 2057, 2052, 2056, 2058, 2047, 2056, 2061, 2051, 2042, 2046, 2051, 2052, 2052, 2061, 2066, 2060, 2062, 2067, 2051, 2048, 2052, 2049, 2058, 2057, 2045, 2050, 2053, 2053, 2050, 2054, 2056, 2049, 2049, 2055, 2047, 2048, 2065, 2058, 2056, 2042, 2044, 2043, 2051, 2054, 2048, 2049, 2048, 2050, 2048, 2047, 2052, 2049, 2060, 2050, 2049, 2045, 2052, 2055, 2050, 2046, 2055, 2054, 2051, 2050, 2049, 2051, 2063, 2055, 2050, 2040, 2039, 2041, 2045, 2050, 2044, 2049, 2038, 2038, 2051, 2042, 2050, 2053, 2045, 2043, 2046, 2054, 2045, 2050, 2046, 2048, 2048, 2049, 2044, 2046, 2054, 2043, 2047, 2057, 2041, 2040],
