{
  "AcquisitionMatrixPE": 64,
  "AcquisitionNumber": 1,
  "AcquisitionTime": "11:47:8.422500",
  "BandwidthPerPixelPhaseEncode": 25.202,
  "BaseResolution": 64,
  "BodyPartExamined": "BRAIN",
  "ConsistencyInfo": "N4_VD13C_LATEST_20121124",
  "ConversionSoftware": "dcm2niix",
  "ConversionSoftwareVersion": "v1.0.20201102",
  "DerivedVendorReportedEchoSpacing": 0.00061999,
  "DeviceSerialNumber": "45758",
  "DwellTime": 4.3e-06,
  "EchoTime": 0.03,
  "EchoTrainLength": 64,
  "EffectiveEchoSpacing": 0.00061999,
  "FlipAngle": 90,
  "ImageOrientationPatientDICOM": [0.99985, -0.0157279, -0.00722834, 0.0157069, 0.999872, -0.00295658],
  "ImageType": [
    "ORIGINAL",
    "PRIMARY",
    "M",
    "ND",
    "MOSAIC"
],
  "ImagingFrequency": 123.2,
  "InPlanePhaseEncodingDirectionDICOM": "ROW",
  "InstitutionAddress": "Street StreetNo,City /652E4B/,District,KR,ZIP",
  "InstitutionName": "DGMIF",
  "InstitutionalDepartmentName": "Department",
  "MRAcquisitionType": "2D",
  "MagneticFieldStrength": 3,
  "Manufacturer": "Siemens",
  "ManufacturersModelName": "Skyra",
  "Modality": "MR",
  "PartialFourier": 1,
  "PatientPosition": "HFS",
  "PercentPhaseFOV": 100,
  "PercentSampling": 100,
  "PhaseEncodingDirection": "i",
  "PhaseEncodingSteps": 64,
  "PhaseResolution": 1,
  "PixelBandwidth": 1815,
  "ProcedureStepDescription": "DGMIF^DGIST_Jeon",
  "ProtocolName": "EPI_DGIST_2",
  "PulseSequenceDetails": "%SiemensSeq%\\ep2d_bold",
  "ReceiveCoilActiveElements": "HC1-7",
  "ReceiveCoilName": "HeadNeck_64",
  "ReconMatrixPE": 64,
  "RepetitionTime": 2,
  "SAR": 0.116422,
  "ScanOptions": "FS",
  "ScanningSequence": "EP",
  "SequenceName": "*epfid2d1_64",
  "SequenceVariant": "SK",
  "SeriesDescription": "EPI_DGIST_2",
  "SeriesNumber": 3,
  "ShimSetting": [-9706, -13583, -8566, 264, -444, -578, -1062, -103],
  "SliceThickness": 4,
  "SliceTiming": [0.9875, 0, 1.055, 0.065, 1.12, 0.13, 1.1875, 0.1975, 1.2525, 0.2625, 1.3175, 0.33, 1.385, 0.395, 1.45, 0.46, 1.5175, 0.5275, 1.5825, 0.5925, 1.6475, 0.66, 1.715, 0.725, 1.78, 0.79, 1.8475, 0.8575, 1.9125, 0.9225],
  "SoftwareVersions": "syngo MR D13C",
  "SpacingBetweenSlices": 4.8,
  "StationName": "AWP45758",
  "TaskName": "asrt",
  "TotalReadoutTime": 0.0390594,
  "TxRefAmp": 304.263,
  "dcmmeta_affine": [
    [-2.9995505809783936, 0.047120705246925354, -0.03491479903459549, 93.1978759765625],
    [0.04718378558754921, 2.999616861343384, -0.013644489459693432, -127.9190902709961],
    [-0.02168501541018486, 0.00886973924934864, 4.799853801727295, -88.70928955078125],
    [0.0, 0.0, 0.0, 1.0]
],
  "dcmmeta_reorient_transform": [
    [0.0, -1.0, 0.0, 63.0],
    [1.0, 0.0, 0.0, 0.0],
    [0.0, 0.0, 1.0, 0.0],
    [0.0, 0.0, 0.0, 1.0]
],
  "dcmmeta_shape": [64, 64, 30, 364],
  "dcmmeta_slice_dim": 2,
  "dcmmeta_version": 0.6,
  "global": {
    "const": {
      "AcquisitionMatrix": [0, 64, 64, 0],
      "AngioFlag": "N",
      "BitsAllocated": 16,
      "BitsStored": 12,
      "BodyPartExamined": "BRAIN",
      "Columns": 384,
      "EchoNumbers": 1,
      "EchoTime": 30.0,
      "EchoTrainLength": 64,
      "FlipAngle": 90.0,
      "HighBit": 11,
      "ImageOrientationPatient": [0.99985018046791, -0.0157279286784, -0.0072283385209, 0.01570690175748, 0.99987226777931, -0.0029565796199],
      "ImagePositionPatient": [-583.63387731333, -533.44605014975, -83.261737272926],
      "ImageType": [
        "ORIGINAL",
        "PRIMARY",
        "M",
        "ND",
        "MOSAIC"
],
      "ImagedNucleus": "1H",
      "ImagingFrequency": 123.200373,
      "InPlanePhaseEncodingDirection": "ROW",
      "MRAcquisitionType": "2D",
      "MagneticFieldStrength": 3.0,
      "Manufacturer": "SIEMENS",
      "ManufacturerModelName": "Skyra",
      "Modality": "MR",
      "NumberOfAverages": 1.0,
      "NumberOfPhaseEncodingSteps": 64,
      "PercentPhaseFieldOfView": 100.0,
      "PercentSampling": 100.0,
      "PerformedProcedureStepStartTime": "110539.029000",
      "PhotometricInterpretation": "MONOCHROME2",
      "PixelBandwidth": 1815.0,
      "PixelRepresentation": 0,
      "PixelSpacing": [3.0, 3.0],
      "ProtocolName": "EPI_DGIST_2",
      "RepetitionTime": 2000.0,
      "Rows": 384,
      "SAR": 0.11642214931987,
      "SamplesPerPixel": 1,
      "ScanOptions": "FS",
      "ScanningSequence": "EP",
      "SequenceName": "*epfid2d1_64",
      "SequenceVariant": "SK",
      "SeriesDescription": "EPI_DGIST_2",
      "SeriesNumber": 3,
      "SeriesTime": "114752.544000",
      "SliceLocation": -89.020876751975,
      "SliceThickness": 4.0,
      "SmallestImagePixelValue": 0,
      "SoftwareVersions": "syngo MR D13C",
      "SpacingBetweenSlices": 4.800000131281,
      "SpecificCharacterSet": "ISO_IR 100",
      "StudyID": "1",
      "StudyTime": "110538.943000",
      "TimeOfLastCalibration": ["123723.000000", "123723.000000"],
      "TransmitCoilName": "Body",
      "VariableFlipAngleFlag": "N",
      "WindowCenterWidthExplanation": "Algo1",
      "dBdt": 0.0},
    "slices": {}
  },
  "time": {
    "samples": {
      "AcquisitionNumber": [1, 2, 3, 4, 5, 6, 7, 8, 9, 10, 11, 12, 13, 14, 15, 16, 17, 18, 19, 20, 21, 22, 23, 24, 25, 26, 27, 28, 29, 30, 31, 32, 33, 34, 35, 36, 37, 38, 39, 40, 41, 42, 43, 44, 45, 46, 47, 48, 49, 50, 51, 52, 53, 54, 55, 56, 57, 58, 59, 60, 61, 62, 63, 64, 65, 66, 67, 68, 69, 70, 71, 72, 73, 74, 75, 76, 77, 78, 79, 80, 81, 82, 83, 84, 85, 86, 87, 88, 89, 90, 91, 92, 93, 94, 95, 96, 97, 98, 99, 100, 101, 102, 103, 104, 105, 106, 107, 108, 109, 110, 111, 112, 113, 114, 115, 116, 117, 118, 119, 120, 121, 122, 123, 124, 125, 126, 127, 128, 129, 130, 131, 132, 133, 134, 135, 136, 137, 138, 139, 140, 141, 142, 143, 144, 145, 146, 147, 148, 149, 150, 151, 152, 153, 154, 155, 156, 157, 158, 159, 160, 161, 162, 163, 164, 165, 166, 167, 168, 169, 170, 171, 172, 173, 174, 175, 176, 177, 178, 179, 180, 181, 182, 183, 184, 185, 186, 187, 188, 189, 190, 191, 192, 193, 194, 195, 196, 197, 198, 199, 200, 201, 202, 203, 204, 205, 206, 207, 208, 209, 210, 211, 212, 213, 214, 215, 216, 217, 218, 219, 220, 221, 222, 223, 224, 225, 226, 227, 228, 229, 230, 231, 232, 233, 234, 235, 236, 237, 238, 239, 240, 241, 242, 243, 244, 245, 246, 247, 248, 249, 250, 251, 252, 253, 254, 255, 256, 257, 258, 259, 260, 261, 262, 263, 264, 265, 266, 267, 268, 269, 270, 271, 272, 273, 274, 275, 276, 277, 278, 279, 280, 281, 282, 283, 284, 285, 286, 287, 288, 289, 290, 291, 292, 293, 294, 295, 296, 297, 298, 299, 300, 301, 302, 303, 304, 305, 306, 307, 308, 309, 310, 311, 312, 313, 314, 315, 316, 317, 318, 319, 320, 321, 322, 323, 324, 325, 326, 327, 328, 329, 330, 331, 332, 333, 334, 335, 336, 337, 338, 339, 340, 341, 342, 343, 344, 345, 346, 347, 348, 349, 350, 351, 352, 353, 354, 355, 356, 357, 358, 359, 360, 361, 362, 363, 364],
      "AcquisitionTime": ["114708.422500", "114710.422500", "114712.422500", "114714.422500", "114716.422500", "114718.425000", "114720.425000", "114722.425000", "114724.425000", "114726.425000", "114728.425000", "114730.425000", "114732.425000", "114734.425000", "114736.425000", "114738.425000", "114740.425000", "114742.425000", "114744.425000", "114746.425000", "114748.425000", "114750.425000", "114752.425000", "114754.425000", "114756.425000", "114758.425000", "114800.425000", "114802.425000", "114804.425000", "114806.425000", "114808.425000", "114810.425000", "114812.425000", "114814.425000", "114816.425000", "114818.425000", "114820.425000", "114822.425000", "114824.425000", "114826.425000", "114828.425000", "114830.425000", "114832.425000", "114834.425000", "114836.425000", "114838.425000", "114840.425000", "114842.425000", "114844.425000", "114846.425000", "114848.425000", "114850.425000", "114852.425000", "114854.425000", "114856.425000", "114858.425000", "114900.425000", "114902.425000", "114904.425000", "114906.425000", "114908.425000", "114910.425000", "114912.425000", "114914.425000", "114916.425000", "114918.425000", "114920.425000", "114922.425000", "114924.425000", "114926.425000", "114928.425000", "114930.425000", "114932.425000", "114934.425000", "114936.425000", "114938.425000", "114940.425000", "114942.425000", "114944.425000", "114946.425000", "114948.425000", "114950.425000", "114952.425000", "114954.425000", "114956.425000", "114958.425000", "115000.425000", "115002.425000", "115004.425000", "115006.425000", "115008.425000", "115010.425000", "115012.425000", "115014.425000", "115016.425000", "115018.425000", "115020.425000", "115022.425000", "115024.425000", "115026.425000", "115028.425000", "115030.425000", "115032.425000", "115034.425000", "115036.425000", "115038.425000", "115040.425000", "115042.425000", "115044.425000", "115046.425000", "115048.425000", "115050.425000", "115052.425000", "115054.425000", "115056.425000", "115058.425000", "115100.425000", "115102.425000", "115104.425000", "115106.425000", "115108.425000", "115110.425000", "115112.425000", "115114.425000", "115116.425000", "115118.425000", "115120.425000", "115122.425000", "115124.425000", "115126.425000", "115128.425000", "115130.425000", "115132.425000", "115134.425000", "115136.425000", "115138.425000", "115140.425000", "115142.425000", "115144.425000", "115146.425000", "115148.425000", "115150.425000", "115152.425000", "115154.425000", "115156.425000", "115158.425000", "115200.425000", "115202.425000", "115204.425000", "115206.425000", "115208.425000", "115210.425000", "115212.425000", "115214.425000", "115216.425000", "115218.425000", "115220.425000", "115222.425000", "115224.425000", "115226.425000", "115228.425000", "115230.425000", "115232.425000", "115234.425000", "115236.425000", "115238.425000", "115240.425000", "115242.425000", "115244.425000", "115246.425000", "115248.425000", "115250.425000", "115252.425000", "115254.425000", "115256.425000", "115258.425000", "115300.425000", "115302.425000", "115304.425000", "115306.425000", "115308.425000", "115310.425000", "115312.425000", "115314.425000", "115316.425000", "115318.425000", "115320.425000", "115322.425000", "115324.425000", "115326.425000", "115328.425000", "115330.425000", "115332.425000", "115334.425000", "115336.425000", "115338.425000", "115340.425000", "115342.425000", "115344.425000", "115346.425000", "115348.425000", "115350.425000", "115352.425000", "115354.425000", "115356.425000", "115358.425000", "115400.425000", "115402.425000", "115404.425000", "115406.425000", "115408.425000", "115410.425000", "115412.425000", "115414.425000", "115416.425000", "115418.425000", "115420.425000", "115422.425000", "115424.425000", "115426.425000", "115428.425000", "115430.425000", "115432.425000", "115434.425000", "115436.425000", "115438.425000", "115440.425000", "115442.425000", "115444.425000", "115446.425000", "115448.425000", "115450.425000", "115452.425000", "115454.425000", "115456.425000", "115458.425000", "115500.425000", "115502.425000", "115504.425000", "115506.425000", "115508.425000", "115510.425000", "115512.425000", "115514.425000", "115516.425000", "115518.425000", "115520.425000", "115522.425000", "115524.425000", "115526.425000", "115528.425000", "115530.425000", "115532.425000", "115534.425000", "115536.425000", "115538.427500", "115540.427500", "115542.427500", "115544.427500", "115546.427500", "115548.427500", "115550.427500", "115552.427500", "115554.427500", "115556.427500", "115558.427500", "115600.427500", "115602.427500", "115604.427500", "115606.427500", "115608.427500", "115610.427500", "115612.427500", "115614.427500", "115616.427500", "115618.427500", "115620.427500", "115622.427500", "115624.427500", "115626.427500", "115628.427500", "115630.427500", "115632.427500", "115634.427500", "115636.427500", "115638.427500", "115640.427500", "115642.427500", "115644.427500", "115646.427500", "115648.427500", "115650.427500", "115652.427500", "115654.427500", "115656.427500", "115658.427500", "115700.427500", "115702.427500", "115704.427500", "115706.427500", "115708.427500", "115710.427500", "115712.427500", "115714.427500", "115716.427500", "115718.427500", "115720.427500", "115722.427500", "115724.427500", "115726.427500", "115728.427500", "115730.427500", "115732.427500", "115734.427500", "115736.427500", "115738.427500", "115740.427500", "115742.427500", "115744.427500", "115746.427500", "115748.427500", "115750.427500", "115752.427500", "115754.427500", "115756.427500", "115758.427500", "115800.427500", "115802.427500", "115804.427500", "115806.427500", "115808.427500", "115810.427500", "115812.427500", "115814.427500", "115816.427500", "115818.427500", "115820.427500", "115822.427500", "115824.427500", "115826.427500", "115828.427500", "115830.427500", "115832.427500", "115834.427500", "115836.427500", "115838.427500", "115840.427500", "115842.427500", "115844.427500", "115846.427500", "115848.427500", "115850.427500", "115852.427500", "115854.427500", "115856.427500", "115858.427500", "115900.427500", "115902.427500", "115904.427500", "115906.427500", "115908.427500", "115910.427500", "115912.427500", "115914.427500"],
      "ContentTime": ["114752.547000", "114752.550000", "114752.552000", "114752.554000", "114752.556000", "114752.558000", "114752.560000", "114752.562000", "114752.564000", "114752.566000", "114752.568000", "114752.570000", "114752.572000", "114752.574000", "114752.576000", "114752.578000", "114752.580000", "114752.582000", "114752.584000", "114752.586000", "114752.588000", "114752.590000", "114832.542000", "114832.544000", "114832.546000", "114832.549000", "114832.551000", "114832.553000", "114832.555000", "114832.557000", "114832.559000", "114832.561000", "114832.562000", "114832.564000", "114832.566000", "114832.568000", "114832.570000", "114832.572000", "114832.574000", "114832.576000", "114832.578000", "114832.580000", "114912.542000", "114912.544000", "114912.546000", "114912.549000", "114912.551000", "114912.553000", "114912.555000", "114912.557000", "114912.559000", "114912.560000", "114912.562000", "114912.564000", "114912.566000", "114912.568000", "114912.570000", "114912.572000", "114912.574000", "114912.576000", "114912.578000", "114912.580000", "114952.542000", "114952.544000", "114952.546000", "114952.549000", "114952.551000", "114952.553000", "114952.554000", "114952.557000", "114952.559000", "114952.561000", "114952.563000", "114952.565000", "114952.567000", "114952.568000", "114952.570000", "114952.573000", "114952.575000", "114952.577000", "114952.579000", "114952.581000", "115012.542000", "115012.544000", "115012.546000", "115012.549000", "115012.551000", "115012.553000", "115012.555000", "115012.557000", "115012.559000", "115012.561000", "115052.542000", "115052.545000", "115052.547000", "115052.549000", "115052.551000", "115052.553000", "115052.563000", "115052.564000", "115052.566000", "115052.569000", "115052.570000", "115052.572000", "115052.574000", "115052.577000", "115052.579000", "115052.580000", "115052.582000", "115052.585000", "115052.587000", "115052.589000", "115132.542000", "115132.544000", "115132.546000", "115132.549000", "115132.551000", "115132.553000", "115132.555000", "115132.557000", "115132.559000", "115132.560000", "115132.562000", "115132.564000", "115132.566000", "115132.568000", "115132.570000", "115132.572000", "115132.574000", "115132.576000", "115132.578000", "115132.580000", "115212.542000", "115212.544000", "115212.546000", "115212.549000", "115212.551000", "115212.553000", "115212.555000", "115212.557000", "115212.559000", "115212.561000", "115212.562000", "115212.565000", "115212.567000", "115212.568000", "115212.570000", "115212.572000", "115212.574000", "115212.576000", "115212.578000", "115212.580000", "115252.542000", "115252.544000", "115252.546000", "115252.549000", "115252.551000", "115252.552000", "115252.554000", "115252.557000", "115252.558000", "115252.560000", "115252.562000", "115252.564000", "115252.566000", "115252.568000", "115252.570000", "115252.573000", "115252.575000", "115252.577000", "115252.579000", "115252.581000", "115332.542000", "115332.544000", "115332.546000", "115332.549000", "115332.551000", "115332.552000", "115332.554000", "115332.557000", "115332.558000", "115332.560000", "115332.562000", "115332.564000", "115332.566000", "115332.568000", "115332.570000", "115332.573000", "115332.575000", "115332.576000", "115332.578000", "115332.581000", "115412.542000", "115412.544000", "115412.546000", "115412.549000", "115412.551000", "115412.553000", "115412.555000", "115412.557000", "115412.559000", "115412.561000", "115412.563000", "115412.565000", "115412.567000", "115412.568000", "115412.570000", "115412.572000", "115412.574000", "115412.576000", "115412.578000", "115412.580000", "115452.542000", "115452.545000", "115452.547000", "115452.549000", "115452.551000", "115452.553000", "115452.555000", "115452.557000", "115452.559000", "115452.561000", "115452.563000", "115452.565000", "115452.567000", "115452.569000", "115452.571000", "115452.573000", "115452.575000", "115452.577000", "115452.579000", "115452.581000", "115532.542000", "115532.545000", "115532.547000", "115532.549000", "115532.551000", "115532.553000", "115532.555000", "115532.557000", "115532.559000", "115532.561000", "115532.563000", "115532.565000", "115532.567000", "115532.569000", "115532.571000", "115532.573000", "115532.575000", "115532.577000", "115532.579000", "115532.581000", "115612.542000", "115612.544000", "115612.546000", "115612.548000", "115612.550000", "115612.552000", "115612.554000", "115612.556000", "115612.558000", "115612.560000", "115612.562000", "115612.564000", "115612.566000", "115612.568000", "115612.570000", "115612.572000", "115612.574000", "115612.576000", "115612.578000", "115612.580000", "115652.542000", "115652.544000", "115652.546000", "115652.548000", "115652.550000", "115652.552000", "115652.554000", "115652.556000", "115652.558000", "115652.560000", "115652.562000", "115652.564000", "115652.566000", "115652.568000", "115652.570000", "115652.572000", "115652.574000", "115652.576000", "115652.578000", "115652.580000", "115732.542000", "115732.544000", "115732.546000", "115732.548000", "115732.550000", "115732.552000", "115732.554000", "115732.556000", "115732.558000", "115732.560000", "115732.562000", "115732.564000", "115732.566000", "115732.568000", "115732.570000", "115732.572000", "115732.574000", "115732.576000", "115732.578000", "115732.580000", "115812.543000", "115812.545000", "115812.547000", "115812.549000", "115812.552000", "115812.553000", "115812.556000", "115812.558000", "115812.560000", "115812.562000", "115812.564000", "115812.565000", "115812.568000", "115812.570000", "115812.572000", "115812.573000", "115812.576000", "115812.578000", "115812.580000", "115812.581000", "115852.542000", "115852.544000", "115852.546000", "115852.549000", "115852.551000", "115852.552000", "115852.554000", "115852.556000", "115852.559000", "115852.561000", "115852.563000", "115852.564000", "115852.566000", "115852.568000", "115852.570000", "115852.572000", "115852.574000", "115852.576000", "115852.578000", "115852.580000", "115915.493000", "115915.495000", "115915.497000", "115915.499000", "115915.501000", "115915.503000", "115915.505000", "115915.507000", "115915.509000", "115915.511000", "115915.513000", "115915.515000"],
      "InstanceCreationTime": ["114752.547000", "114752.550000", "114752.552000", "114752.554000", "114752.556000", "114752.558000", "114752.560000", "114752.562000", "114752.564000", "114752.566000", "114752.568000", "114752.570000", "114752.572000", "114752.574000", "114752.576000", "114752.578000", "114752.580000", "114752.582000", "114752.584000", "114752.586000", "114752.588000", "114752.590000", "114832.542000", "114832.544000", "114832.546000", "114832.549000", "114832.551000", "114832.553000", "114832.555000", "114832.557000", "114832.559000", "114832.561000", "114832.562000", "114832.564000", "114832.566000", "114832.568000", "114832.570000", "114832.572000", "114832.574000", "114832.576000", "114832.578000", "114832.580000", "114912.542000", "114912.544000", "114912.546000", "114912.549000", "114912.551000", "114912.553000", "114912.555000", "114912.557000", "114912.559000", "114912.560000", "114912.562000", "114912.564000", "114912.566000", "114912.568000", "114912.570000", "114912.572000", "114912.574000", "114912.576000", "114912.578000", "114912.580000", "114952.542000", "114952.544000", "114952.546000", "114952.549000", "114952.551000", "114952.553000", "114952.554000", "114952.557000", "114952.559000", "114952.561000", "114952.563000", "114952.565000", "114952.567000", "114952.568000", "114952.570000", "114952.573000", "114952.575000", "114952.577000", "114952.579000", "114952.581000", "115012.542000", "115012.544000", "115012.546000", "115012.549000", "115012.551000", "115012.553000", "115012.555000", "115012.557000", "115012.559000", "115012.561000", "115052.542000", "115052.545000", "115052.547000", "115052.549000", "115052.551000", "115052.553000", "115052.563000", "115052.564000", "115052.566000", "115052.569000", "115052.570000", "115052.572000", "115052.574000", "115052.577000", "115052.579000", "115052.580000", "115052.582000", "115052.585000", "115052.587000", "115052.589000", "115132.542000", "115132.544000", "115132.546000", "115132.549000", "115132.551000", "115132.553000", "115132.555000", "115132.557000", "115132.559000", "115132.560000", "115132.562000", "115132.564000", "115132.566000", "115132.568000", "115132.570000", "115132.572000", "115132.574000", "115132.576000", "115132.578000", "115132.580000", "115212.542000", "115212.544000", "115212.546000", "115212.549000", "115212.551000", "115212.553000", "115212.555000", "115212.557000", "115212.559000", "115212.561000", "115212.562000", "115212.565000", "115212.567000", "115212.568000", "115212.570000", "115212.572000", "115212.574000", "115212.576000", "115212.578000", "115212.580000", "115252.542000", "115252.544000", "115252.546000", "115252.549000", "115252.551000", "115252.552000", "115252.554000", "115252.557000", "115252.558000", "115252.560000", "115252.562000", "115252.564000", "115252.566000", "115252.568000", "115252.570000", "115252.573000", "115252.575000", "115252.577000", "115252.579000", "115252.581000", "115332.542000", "115332.544000", "115332.546000", "115332.549000", "115332.551000", "115332.552000", "115332.554000", "115332.557000", "115332.558000", "115332.560000", "115332.562000", "115332.564000", "115332.566000", "115332.568000", "115332.570000", "115332.573000", "115332.575000", "115332.576000", "115332.578000", "115332.581000", "115412.542000", "115412.544000", "115412.546000", "115412.549000", "115412.551000", "115412.553000", "115412.555000", "115412.557000", "115412.559000", "115412.561000", "115412.563000", "115412.565000", "115412.567000", "115412.568000", "115412.570000", "115412.572000", "115412.574000", "115412.576000", "115412.578000", "115412.580000", "115452.542000", "115452.545000", "115452.547000", "115452.549000", "115452.551000", "115452.553000", "115452.555000", "115452.557000", "115452.559000", "115452.561000", "115452.563000", "115452.565000", "115452.567000", "115452.569000", "115452.571000", "115452.573000", "115452.575000", "115452.577000", "115452.579000", "115452.581000", "115532.542000", "115532.545000", "115532.547000", "115532.549000", "115532.551000", "115532.553000", "115532.555000", "115532.557000", "115532.559000", "115532.561000", "115532.563000", "115532.565000", "115532.567000", "115532.569000", "115532.571000", "115532.573000", "115532.575000", "115532.577000", "115532.579000", "115532.581000", "115612.542000", "115612.544000", "115612.546000", "115612.548000", "115612.550000", "115612.552000", "115612.554000", "115612.556000", "115612.558000", "115612.560000", "115612.562000", "115612.564000", "115612.566000", "115612.568000", "115612.570000", "115612.572000", "115612.574000", "115612.576000", "115612.578000", "115612.580000", "115652.542000", "115652.544000", "115652.546000", "115652.548000", "115652.550000", "115652.552000", "115652.554000", "115652.556000", "115652.558000", "115652.560000", "115652.562000", "115652.564000", "115652.566000", "115652.568000", "115652.570000", "115652.572000", "115652.574000", "115652.576000", "115652.578000", "115652.580000", "115732.542000", "115732.544000", "115732.546000", "115732.548000", "115732.550000", "115732.552000", "115732.554000", "115732.556000", "115732.558000", "115732.560000", "115732.562000", "115732.564000", "115732.566000", "115732.568000", "115732.570000", "115732.572000", "115732.574000", "115732.576000", "115732.578000", "115732.580000", "115812.543000", "115812.545000", "115812.547000", "115812.549000", "115812.552000", "115812.553000", "115812.556000", "115812.558000", "115812.560000", "115812.562000", "115812.564000", "115812.565000", "115812.568000", "115812.570000", "115812.572000", "115812.573000", "115812.576000", "115812.578000", "115812.580000", "115812.581000", "115852.542000", "115852.544000", "115852.546000", "115852.549000", "115852.551000", "115852.552000", "115852.554000", "115852.556000", "115852.559000", "115852.561000", "115852.563000", "115852.564000", "115852.566000", "115852.568000", "115852.570000", "115852.572000", "115852.574000", "115852.576000", "115852.578000", "115852.580000", "115915.493000", "115915.495000", "115915.497000", "115915.499000", "115915.501000", "115915.503000", "115915.505000", "115915.507000", "115915.509000", "115915.511000", "115915.513000", "115915.515000"],
      "InstanceNumber": [1, 2, 3, 4, 5, 6, 7, 8, 9, 10, 11, 12, 13, 14, 15, 16, 17, 18, 19, 20, 21, 22, 23, 24, 25, 26, 27, 28, 29, 30, 31, 32, 33, 34, 35, 36, 37, 38, 39, 40, 41, 42, 43, 44, 45, 46, 47, 48, 49, 50, 51, 52, 53, 54, 55, 56, 57, 58, 59, 60, 61, 62, 63, 64, 65, 66, 67, 68, 69, 70, 71, 72, 73, 74, 75, 76, 77, 78, 79, 80, 81, 82, 83, 84, 85, 86, 87, 88, 89, 90, 91, 92, 93, 94, 95, 96, 97, 98, 99, 100, 101, 102, 103, 104, 105, 106, 107, 108, 109, 110, 111, 112, 113, 114, 115, 116, 117, 118, 119, 120, 121, 122, 123, 124, 125, 126, 127, 128, 129, 130, 131, 132, 133, 134, 135, 136, 137, 138, 139, 140, 141, 142, 143, 144, 145, 146, 147, 148, 149, 150, 151, 152, 153, 154, 155, 156, 157, 158, 159, 160, 161, 162, 163, 164, 165, 166, 167, 168, 169, 170, 171, 172, 173, 174, 175, 176, 177, 178, 179, 180, 181, 182, 183, 184, 185, 186, 187, 188, 189, 190, 191, 192, 193, 194, 195, 196, 197, 198, 199, 200, 201, 202, 203, 204, 205, 206, 207, 208, 209, 210, 211, 212, 213, 214, 215, 216, 217, 218, 219, 220, 221, 222, 223, 224, 225, 226, 227, 228, 229, 230, 231, 232, 233, 234, 235, 236, 237, 238, 239, 240, 241, 242, 243, 244, 245, 246, 247, 248, 249, 250, 251, 252, 253, 254, 255, 256, 257, 258, 259, 260, 261, 262, 263, 264, 265, 266, 267, 268, 269, 270, 271, 272, 273, 274, 275, 276, 277, 278, 279, 280, 281, 282, 283, 284, 285, 286, 287, 288, 289, 290, 291, 292, 293, 294, 295, 296, 297, 298, 299, 300, 301, 302, 303, 304, 305, 306, 307, 308, 309, 310, 311, 312, 313, 314, 315, 316, 317, 318, 319, 320, 321, 322, 323, 324, 325, 326, 327, 328, 329, 330, 331, 332, 333, 334, 335, 336, 337, 338, 339, 340, 341, 342, 343, 344, 345, 346, 347, 348, 349, 350, 351, 352, 353, 354, 355, 356, 357, 358, 359, 360, 361, 362, 363, 364],
      "LargestImagePixelValue": [2062, 2059, 2065, 2057, 2053, 2056, 2053, 2053, 2052, 2053, 2047, 2053, 2048, 2047, 2051, 2050, 2051, 2051, 2052, 2046, 2043, 2041, 2045, 2048, 2051, 2057, 2051, 2041, 2053, 2045, 2053, 2053, 2042, 2036, 2031, 2036, 2043, 2051, 2039, 2030, 2027, 2028, 2040, 2047, 2043, 2040, 2045, 2049, 2044, 2037, 2036, 2044, 2039, 2035, 2037, 2035, 2027, 2035, 2040, 2037, 2042, 2045, 2106, 2051, 2041, 2039, 2043, 2035, 2019, 2026, 2022, 2019, 2034, 2049, 2059, 2034, 2039, 2041, 2049, 2044, 2041, 2031, 2028, 2038, 2042, 2039, 2035, 2026, 2036, 2037, 2038, 2041, 2037, 2030, 2026, 2038, 2048, 2049, 2043, 2044, 2043, 2041, 2030, 2034, 2043, 2049, 2040, 2037, 2033, 2038, 2033, 2034, 2036, 2041, 2038, 2029, 2044, 2038, 2032, 2030, 2028, 2029, 2025, 2040, 2048, 2044, 2042, 2046, 2038, 2037, 2040, 2040, 2042, 2044, 2042, 2040, 2042, 2043, 2047, 2040, 2035, 2041, 2037, 2037, 2039, 2042, 2049, 2045, 2048, 2039, 2040, 2045, 2049, 2048, 2044, 2048, 2050, 2053, 2049, 2040, 2038, 2037, 2038, 2041, 2042, 2037, 2052, 2053, 2057, 2047, 2039, 2044, 2048, 2048, 2044, 2049, 2046, 2034, 2046, 2048, 2048, 2060, 2053, 2043, 2039, 2045, 2047, 2050, 2051, 2054, 2049, 2055, 2059, 2057, 2049, 2041, 2042, 2053, 2052, 2052, 2055, 2055, 2053, 2053, 2053, 2055, 2056, 2045, 2051, 2054, 2054, 2062, 2052, 2041, 2051, 2053, 2058, 2063, 2055, 2056, 2052, 2053, 2059, 2052, 2051, 2046, 2044, 2052, 2047, 2043, 2050, 2054, 2051, 2057, 2047, 2047, 2049, 2048, 2048, 2049, 2060, 2059, 2062, 2048, 2047, 2049, 2060, 2056, 2041, 2040, 2041, 2050, 2044, 2042, 2041, 2040, 2040, 2038, 2048, 2044, 2048, 2050, 2050, 2047, 2044, 2047, 2049, 2052, 2050, 2045, 2042, 2034, 2047, 2048, 2049, 2052, 2057, 2052, 2045, 2052, 2052, 2051, 2049, 2056, 2053, 2049, 2046, 2053, 2053, 2054, 2047, 2048, 2048, 2048, 2060, 2051, 2050, 2047, 2048, 2053, 2039, 2047, 2051, 2040, 2044, 2054, 2063, 2058, 2050, 2052, 2051, 2049, 2050, 2047, 2048, 2051, 2058, 2054, 2050, 2036, 2043, 2048, 2048, 2047, 2054, 2056, 2059, 2059, 2056, 2056, 2054, 2057, 2058, 2051, 2050, 2048, 2055, 2052, 2054, 2044, 2049, 2049, 2055, 2054, 2051, 2048, 2056, 2045, 2049, 2047, 2053, 2048, 2042, 2045, 2052, 2052, 2057, 2052, 2047, 2050, 2055, 2057, 2048, 2048],
