{
  "AcquisitionMatrixPE": 64,
  "AcquisitionNumber": 1,
  "AcquisitionTime": "11:27:12.517500",
  "BandwidthPerPixelPhaseEncode": 25.202,
  "BaseResolution": 64,
  "BodyPartExamined": "BRAIN",
  "ConsistencyInfo": "N4_VD13C_LATEST_20121124",
  "ConversionSoftware": "dcm2niix",
  "ConversionSoftwareVersion": "v1.0.20201102",
  "DerivedVendorReportedEchoSpacing": 0.00061999,
  "DeviceSerialNumber": "45758",
  "DwellTime": 4.3e-06,
  "EchoTime": 0.03,
  "EchoTrainLength": 64,
  "EffectiveEchoSpacing": 0.00061999,
  "FlipAngle": 90,
  "ImageOrientationPatientDICOM": [0.999945, 0.0104749, -0.000174416, -0.0104718, 0.999862, 0.0129091],
  "ImageType": [
    "ORIGINAL",
    "PRIMARY",
    "M",
    "ND",
    "MOSAIC"
],
  "ImagingFrequency": 123.2,
  "InPlanePhaseEncodingDirectionDICOM": "ROW",
  "InstitutionAddress": "Street StreetNo,City /652E4B/,District,KR,ZIP",
  "InstitutionName": "DGMIF",
  "InstitutionalDepartmentName": "Department",
  "MRAcquisitionType": "2D",
  "MagneticFieldStrength": 3,
  "Manufacturer": "Siemens",
  "ManufacturersModelName": "Skyra",
  "Modality": "MR",
  "PartialFourier": 1,
  "PatientPosition": "HFS",
  "PercentPhaseFOV": 100,
  "PercentSampling": 100,
  "PhaseEncodingDirection": "i",
  "PhaseEncodingSteps": 64,
  "PhaseResolution": 1,
  "PixelBandwidth": 1815,
  "ProcedureStepDescription": "DGMIF^DGIST_Jeon",
  "ProtocolName": "EPI_DGIST_2",
  "PulseSequenceDetails": "%SiemensSeq%\\ep2d_bold",
  "ReceiveCoilActiveElements": "HC1-6",
  "ReceiveCoilName": "HeadNeck_64",
  "ReconMatrixPE": 64,
  "RepetitionTime": 2,
  "SAR": 0.137216,
  "ScanOptions": "FS",
  "ScanningSequence": "EP",
  "SequenceName": "*epfid2d1_64",
  "SequenceVariant": "SK",
  "SeriesDescription": "EPI_DGIST_2",
  "SeriesNumber": 3,
  "ShimSetting": [-9747, -13585, -8102, 441, -462, 10, -605, 27],
  "SliceThickness": 4,
  "SliceTiming": [0.99, 0, 1.0575, 0.0675, 1.1225, 0.1325, 1.1875, 0.1975, 1.255, 0.265, 1.32, 0.33, 1.3875, 0.3975, 1.4525, 0.4625, 1.5175, 0.5275, 1.585, 0.595, 1.65, 0.66, 1.7175, 0.7275, 1.7825, 0.7925, 1.8475, 0.8575, 1.915, 0.925],
  "SoftwareVersions": "syngo MR D13C",
  "SpacingBetweenSlices": 4.8,
  "StationName": "AWP45758",
  "TaskName": "asrt",
  "TotalReadoutTime": 0.0390594,
  "TxRefAmp": 313.727,
  "dcmmeta_affine": [
    [-2.999835252761841, -0.03141535073518753, -0.0014861435629427433, 94.7602767944336],
    [-0.03142472356557846, 2.9995856285095215, 0.06195134297013283, -117.08023071289062],
    [-0.0005232481635175645, -0.03872719407081604, 4.799600124359131, -77.41507720947266],
    [0.0, 0.0, 0.0, 1.0]
],
  "dcmmeta_reorient_transform": [
    [0.0, -1.0, 0.0, 63.0],
    [1.0, 0.0, 0.0, 0.0],
    [0.0, 0.0, 1.0, 0.0],
    [0.0, 0.0, 0.0, 1.0]
],
  "dcmmeta_shape": [64, 64, 30, 364],
  "dcmmeta_slice_dim": 2,
  "dcmmeta_version": 0.6,
  "global": {
    "const": {
      "AcquisitionMatrix": [0, 64, 64, 0],
      "AngioFlag": "N",
      "BitsAllocated": 16,
      "BitsStored": 12,
      "BodyPartExamined": "BRAIN",
      "Columns": 384,
      "EchoNumbers": 1,
      "EchoTime": 30.0,
      "EchoTrainLength": 64,
      "FlipAngle": 90.0,
      "HighBit": 11,
      "ImageOrientationPatient": [0.99994512143356, 0.01047490812707, -0.0001744160621, -0.0104717840353, 0.99986183935329, 0.01290906441892],
      "ImagePositionPatient": [-567.72831099488, -556.85529749656, -85.967519819276],
      "ImageType": [
        "ORIGINAL",
        "PRIMARY",
        "M",
        "ND",
        "MOSAIC"
],
      "ImagedNucleus": "1H",
      "ImagingFrequency": 123.200215,
      "InPlanePhaseEncodingDirection": "ROW",
      "MRAcquisitionType": "2D",
      "MagneticFieldStrength": 3.0,
      "Manufacturer": "SIEMENS",
      "ManufacturerModelName": "Skyra",
      "Modality": "MR",
      "NumberOfAverages": 1.0,
      "NumberOfPhaseEncodingSteps": 64,
      "PercentPhaseFieldOfView": 100.0,
      "PercentSampling": 100.0,
      "PerformedProcedureStepStartTime": "110314.658000",
      "PhotometricInterpretation": "MONOCHROME2",
      "PixelBandwidth": 1815.0,
      "PixelRepresentation": 0,
      "PixelSpacing": [3.0, 3.0],
      "ProtocolName": "EPI_DGIST_2",
      "RepetitionTime": 2000.0,
      "Rows": 384,
      "SAR": 0.13721567385794,
      "SamplesPerPixel": 1,
      "ScanOptions": "FS",
      "ScanningSequence": "EP",
      "SequenceName": "*epfid2d1_64",
      "SequenceVariant": "SK",
      "SeriesDescription": "EPI_DGIST_2",
      "SeriesNumber": 3,
      "SeriesTime": "112810.311000",
      "SliceLocation": -78.949062078062,
      "SliceThickness": 4.0,
      "SmallestImagePixelValue": 0,
      "SoftwareVersions": "syngo MR D13C",
      "SpacingBetweenSlices": 4.8000000443969,
      "SpecificCharacterSet": "ISO_IR 100",
      "StudyID": "1",
      "StudyTime": "110314.595000",
      "TimeOfLastCalibration": ["123723.000000", "123723.000000"],
      "TransmitCoilName": "Body",
      "VariableFlipAngleFlag": "N",
      "WindowCenterWidthExplanation": "Algo1",
      "dBdt": 0.0},
    "slices": {}
  },
  "time": {
    "samples": {
      "AcquisitionNumber": [1, 2, 3, 4, 5, 6, 7, 8, 9, 10, 11, 12, 13, 14, 15, 16, 17, 18, 19, 20, 21, 22, 23, 24, 25, 26, 27, 28, 29, 30, 31, 32, 33, 34, 35, 36, 37, 38, 39, 40, 41, 42, 43, 44, 45, 46, 47, 48, 49, 50, 51, 52, 53, 54, 55, 56, 57, 58, 59, 60, 61, 62, 63, 64, 65, 66, 67, 68, 69, 70, 71, 72, 73, 74, 75, 76, 77, 78, 79, 80, 81, 82, 83, 84, 85, 86, 87, 88, 89, 90, 91, 92, 93, 94, 95, 96, 97, 98, 99, 100, 101, 102, 103, 104, 105, 106, 107, 108, 109, 110, 111, 112, 113, 114, 115, 116, 117, 118, 119, 120, 121, 122, 123, 124, 125, 126, 127, 128, 129, 130, 131, 132, 133, 134, 135, 136, 137, 138, 139, 140, 141, 142, 143, 144, 145, 146, 147, 148, 149, 150, 151, 152, 153, 154, 155, 156, 157, 158, 159, 160, 161, 162, 163, 164, 165, 166, 167, 168, 169, 170, 171, 172, 173, 174, 175, 176, 177, 178, 179, 180, 181, 182, 183, 184, 185, 186, 187, 188, 189, 190, 191, 192, 193, 194, 195, 196, 197, 198, 199, 200, 201, 202, 203, 204, 205, 206, 207, 208, 209, 210, 211, 212, 213, 214, 215, 216, 217, 218, 219, 220, 221, 222, 223, 224, 225, 226, 227, 228, 229, 230, 231, 232, 233, 234, 235, 236, 237, 238, 239, 240, 241, 242, 243, 244, 245, 246, 247, 248, 249, 250, 251, 252, 253, 254, 255, 256, 257, 258, 259, 260, 261, 262, 263, 264, 265, 266, 267, 268, 269, 270, 271, 272, 273, 274, 275, 276, 277, 278, 279, 280, 281, 282, 283, 284, 285, 286, 287, 288, 289, 290, 291, 292, 293, 294, 295, 296, 297, 298, 299, 300, 301, 302, 303, 304, 305, 306, 307, 308, 309, 310, 311, 312, 313, 314, 315, 316, 317, 318, 319, 320, 321, 322, 323, 324, 325, 326, 327, 328, 329, 330, 331, 332, 333, 334, 335, 336, 337, 338, 339, 340, 341, 342, 343, 344, 345, 346, 347, 348, 349, 350, 351, 352, 353, 354, 355, 356, 357, 358, 359, 360, 361, 362, 363, 364],
      "AcquisitionTime": ["112712.517500", "112714.517500", "112716.517500", "112718.517500", "112720.517500", "112722.517500", "112724.517500", "112726.517500", "112728.517500", "112730.517500", "112732.517500", "112734.517500", "112736.517500", "112738.517500", "112740.517500", "112742.517500", "112744.517500", "112746.517500", "112748.517500", "112750.517500", "112752.517500", "112754.517500", "112756.517500", "112758.517500", "112800.517500", "112802.517500", "112804.517500", "112806.517500", "112808.517500", "112810.517500", "112812.517500", "112814.517500", "112816.517500", "112818.517500", "112820.517500", "112822.517500", "112824.517500", "112826.517500", "112828.517500", "112830.517500", "112832.517500", "112834.517500", "112836.517500", "112838.517500", "112840.517500", "112842.517500", "112844.517500", "112846.517500", "112848.517500", "112850.517500", "112852.517500", "112854.517500", "112856.517500", "112858.517500", "112900.517500", "112902.517500", "112904.517500", "112906.517500", "112908.517500", "112910.517500", "112912.517500", "112914.517500", "112916.517500", "112918.517500", "112920.517500", "112922.517500", "112924.517500", "112926.517500", "112928.517500", "112930.517500", "112932.517500", "112934.517500", "112936.517500", "112938.517500", "112940.517500", "112942.517500", "112944.517500", "112946.517500", "112948.517500", "112950.517500", "112952.517500", "112954.517500", "112956.517500", "112958.517500", "113000.517500", "113002.520000", "113004.520000", "113006.520000", "113008.520000", "113010.520000", "113012.520000", "113014.520000", "113016.520000", "113018.520000", "113020.520000", "113022.520000", "113024.520000", "113026.520000", "113028.520000", "113030.520000", "113032.520000", "113034.520000", "113036.520000", "113038.520000", "113040.520000", "113042.520000", "113044.520000", "113046.520000", "113048.520000", "113050.520000", "113052.520000", "113054.520000", "113056.520000", "113058.520000", "113100.520000", "113102.520000", "113104.520000", "113106.520000", "113108.520000", "113110.520000", "113112.520000", "113114.520000", "113116.520000", "113118.520000", "113120.520000", "113122.520000", "113124.520000", "113126.520000", "113128.520000", "113130.520000", "113132.520000", "113134.520000", "113136.520000", "113138.520000", "113140.520000", "113142.520000", "113144.520000", "113146.520000", "113148.520000", "113150.520000", "113152.520000", "113154.520000", "113156.520000", "113158.520000", "113200.520000", "113202.520000", "113204.520000", "113206.520000", "113208.520000", "113210.520000", "113212.520000", "113214.520000", "113216.520000", "113218.520000", "113220.520000", "113222.520000", "113224.520000", "113226.520000", "113228.520000", "113230.520000", "113232.520000", "113234.520000", "113236.520000", "113238.520000", "113240.520000", "113242.520000", "113244.520000", "113246.520000", "113248.520000", "113250.520000", "113252.520000", "113254.520000", "113256.520000", "113258.520000", "113300.520000", "113302.520000", "113304.520000", "113306.520000", "113308.520000", "113310.520000", "113312.520000", "113314.520000", "113316.520000", "113318.520000", "113320.520000", "113322.520000", "113324.520000", "113326.520000", "113328.520000", "113330.520000", "113332.520000", "113334.520000", "113336.520000", "113338.520000", "113340.520000", "113342.520000", "113344.520000", "113346.520000", "113348.520000", "113350.520000", "113352.520000", "113354.520000", "113356.520000", "113358.520000", "113400.520000", "113402.520000", "113404.520000", "113406.520000", "113408.520000", "113410.520000", "113412.520000", "113414.520000", "113416.520000", "113418.520000", "113420.520000", "113422.520000", "113424.520000", "113426.520000", "113428.520000", "113430.520000", "113432.520000", "113434.520000", "113436.520000", "113438.520000", "113440.520000", "113442.520000", "113444.520000", "113446.520000", "113448.520000", "113450.520000", "113452.520000", "113454.520000", "113456.520000", "113458.520000", "113500.520000", "113502.520000", "113504.520000", "113506.520000", "113508.520000", "113510.520000", "113512.520000", "113514.520000", "113516.520000", "113518.520000", "113520.520000", "113522.520000", "113524.520000", "113526.520000", "113528.520000", "113530.520000", "113532.520000", "113534.520000", "113536.520000", "113538.520000", "113540.520000", "113542.520000", "113544.520000", "113546.520000", "113548.520000", "113550.520000", "113552.520000", "113554.520000", "113556.520000", "113558.520000", "113600.520000", "113602.520000", "113604.520000", "113606.520000", "113608.520000", "113610.520000", "113612.520000", "113614.520000", "113616.520000", "113618.520000", "113620.520000", "113622.520000", "113624.520000", "113626.520000", "113628.520000", "113630.520000", "113632.520000", "113634.520000", "113636.520000", "113638.520000", "113640.520000", "113642.520000", "113644.520000", "113646.520000", "113648.520000", "113650.520000", "113652.520000", "113654.520000", "113656.520000", "113658.520000", "113700.520000", "113702.520000", "113704.520000", "113706.520000", "113708.520000", "113710.520000", "113712.520000", "113714.520000", "113716.520000", "113718.520000", "113720.520000", "113722.520000", "113724.520000", "113726.520000", "113728.520000", "113730.520000", "113732.520000", "113734.520000", "113736.520000", "113738.520000", "113740.520000", "113742.520000", "113744.520000", "113746.520000", "113748.520000", "113750.520000", "113752.520000", "113754.520000", "113756.520000", "113758.520000", "113800.520000", "113802.520000", "113804.520000", "113806.520000", "113808.520000", "113810.520000", "113812.520000", "113814.520000", "113816.520000", "113818.520000", "113820.520000", "113822.522500", "113824.522500", "113826.522500", "113828.522500", "113830.522500", "113832.522500", "113834.522500", "113836.522500", "113838.522500", "113840.522500", "113842.522500", "113844.522500", "113846.522500", "113848.522500", "113850.522500", "113852.522500", "113854.522500", "113856.522500", "113858.522500", "113900.522500", "113902.522500", "113904.522500", "113906.522500", "113908.522500", "113910.522500", "113912.522500", "113914.522500", "113916.522500", "113918.522500"],
      "ContentTime": ["112810.314000", "112810.317000", "112810.318000", "112810.320000", "112810.322000", "112810.324000", "112810.326000", "112810.328000", "112810.330000", "112810.332000", "112810.334000", "112810.336000", "112810.338000", "112810.340000", "112810.342000", "112810.344000", "112810.345000", "112810.347000", "112810.358000", "112810.360000", "112810.362000", "112810.370000", "112810.375000", "112810.377000", "112810.386000", "112810.388000", "112810.396000", "112810.398000", "112850.310000", "112850.313000", "112850.315000", "112850.316000", "112850.318000", "112850.320000", "112850.322000", "112850.324000", "112850.326000", "112850.328000", "112850.330000", "112850.332000", "112850.334000", "112850.336000", "112850.338000", "112850.340000", "112850.342000", "112850.344000", "112850.353000", "112850.355000", "112930.310000", "112930.312000", "112930.314000", "112930.316000", "112930.318000", "112930.320000", "112930.322000", "112930.324000", "112930.326000", "112930.328000", "112930.330000", "112930.332000", "112930.334000", "112930.336000", "112930.337000", "112930.339000", "112930.341000", "112930.343000", "112930.345000", "112930.347000", "113010.309000", "113010.311000", "113010.313000", "113010.315000", "113010.317000", "113010.319000", "113010.321000", "113010.323000", "113010.325000", "113010.327000", "113010.329000", "113010.331000", "113010.333000", "113010.335000", "113010.336000", "113010.338000", "113010.340000", "113010.342000", "113010.344000", "113010.346000", "113050.310000", "113050.312000", "113050.314000", "113050.316000", "113050.318000", "113050.320000", "113050.322000", "113050.324000", "113050.326000", "113050.328000", "113050.330000", "113050.332000", "113050.334000", "113050.336000", "113050.338000", "113050.340000", "113050.346000", "113050.348000", "113050.350000", "113050.352000", "113130.310000", "113130.312000", "113130.314000", "113130.316000", "113130.318000", "113130.320000", "113130.322000", "113130.324000", "113130.326000", "113130.328000", "113130.330000", "113130.332000", "113130.334000", "113130.336000", "113130.338000", "113130.340000", "113130.342000", "113130.343000", "113130.345000", "113130.347000", "113210.309000", "113210.311000", "113210.313000", "113210.315000", "113210.317000", "113210.319000", "113210.321000", "113210.323000", "113210.325000", "113210.327000", "113210.329000", "113210.331000", "113210.333000", "113210.335000", "113210.337000", "113210.339000", "113210.340000", "113210.342000", "113210.344000", "113210.346000", "113250.309000", "113250.311000", "113250.313000", "113250.315000", "113250.317000", "113250.319000", "113250.321000", "113250.323000", "113250.325000", "113250.327000", "113250.329000", "113250.331000", "113250.333000", "113250.335000", "113250.337000", "113250.338000", "113250.340000", "113250.342000", "113250.344000", "113250.346000", "113330.310000", "113330.312000", "113330.314000", "113330.316000", "113330.318000", "113330.320000", "113330.322000", "113330.324000", "113330.326000", "113330.328000", "113330.330000", "113330.332000", "113330.334000", "113330.336000", "113330.338000", "113330.340000", "113330.342000", "113330.343000", "113330.345000", "113330.347000", "113350.310000", "113350.312000", "113350.314000", "113350.316000", "113350.318000", "113350.320000", "113350.322000", "113350.324000", "113350.326000", "113350.328000", "113430.309000", "113430.311000", "113430.313000", "113430.315000", "113430.317000", "113430.319000", "113430.321000", "113430.323000", "113430.325000", "113430.327000", "113430.329000", "113430.331000", "113430.333000", "113430.335000", "113430.337000", "113430.339000", "113430.341000", "113430.343000", "113430.344000", "113430.346000", "113510.309000", "113510.311000", "113510.313000", "113510.315000", "113510.317000", "113510.319000", "113510.321000", "113510.323000", "113510.325000", "113510.327000", "113510.329000", "113510.331000", "113510.333000", "113510.335000", "113510.337000", "113510.353000", "113510.355000", "113510.357000", "113510.359000", "113510.361000", "113550.310000", "113550.312000", "113550.314000", "113550.316000", "113550.318000", "113550.320000", "113550.322000", "113550.324000", "113550.326000", "113550.328000", "113550.330000", "113550.332000", "113550.334000", "113550.336000", "113550.338000", "113550.339000", "113550.341000", "113550.343000", "113550.345000", "113550.347000", "113630.310000", "113630.312000", "113630.314000", "113630.316000", "113630.318000", "113630.320000", "113630.322000", "113630.324000", "113630.326000", "113630.328000", "113630.330000", "113630.332000", "113630.334000", "113630.336000", "113630.338000", "113630.340000", "113630.342000", "113630.344000", "113630.346000", "113630.348000", "113710.309000", "113710.311000", "113710.313000", "113710.315000", "113710.317000", "113710.319000", "113710.321000", "113710.323000", "113710.325000", "113710.327000", "113710.329000", "113710.331000", "113710.333000", "113710.335000", "113710.337000", "113710.339000", "113710.341000", "113710.343000", "113710.345000", "113710.347000", "113750.310000", "113750.312000", "113750.314000", "113750.316000", "113750.318000", "113750.320000", "113750.322000", "113750.324000", "113750.326000", "113750.328000", "113750.330000", "113750.332000", "113750.334000", "113750.336000", "113750.338000", "113750.340000", "113750.342000", "113750.344000", "113750.346000", "113750.348000", "113830.310000", "113830.312000", "113830.314000", "113830.316000", "113830.318000", "113830.320000", "113830.322000", "113830.324000", "113830.326000", "113830.328000", "113830.330000", "113830.332000", "113830.334000", "113830.336000", "113830.338000", "113830.340000", "113830.342000", "113830.343000", "113830.345000", "113830.347000", "113910.309000", "113910.312000", "113910.314000", "113910.315000", "113910.317000", "113910.319000", "113910.321000", "113910.323000", "113910.325000", "113910.327000", "113910.329000", "113910.331000", "113910.333000", "113910.335000", "113910.337000", "113910.339000", "113910.341000", "113910.343000", "113910.345000", "113910.347000", "113920.558000", "113920.560000", "113920.562000", "113920.564000", "113920.566000", "113920.568000"],
      "InstanceCreationTime": ["112810.314000", "112810.317000", "112810.318000", "112810.320000", "112810.322000", "112810.324000", "112810.326000", "112810.328000", "112810.330000", "112810.332000", "112810.334000", "112810.336000", "112810.338000", "112810.340000", "112810.342000", "112810.344000", "112810.345000", "112810.347000", "112810.358000", "112810.360000", "112810.362000", "112810.370000", "112810.375000", "112810.377000", "112810.386000", "112810.388000", "112810.396000", "112810.398000", "112850.310000", "112850.313000", "112850.315000", "112850.316000", "112850.318000", "112850.320000", "112850.322000", "112850.324000", "112850.326000", "112850.328000", "112850.330000", "112850.332000", "112850.334000", "112850.336000", "112850.338000", "112850.340000", "112850.342000", "112850.344000", "112850.353000", "112850.355000", "112930.310000", "112930.312000", "112930.314000", "112930.316000", "112930.318000", "112930.320000", "112930.322000", "112930.324000", "112930.326000", "112930.328000", "112930.330000", "112930.332000", "112930.334000", "112930.336000", "112930.337000", "112930.339000", "112930.341000", "112930.343000", "112930.345000", "112930.347000", "113010.309000", "113010.311000", "113010.313000", "113010.315000", "113010.317000", "113010.319000", "113010.321000", "113010.323000", "113010.325000", "113010.327000", "113010.329000", "113010.331000", "113010.333000", "113010.335000", "113010.336000", "113010.338000", "113010.340000", "113010.342000", "113010.344000", "113010.346000", "113050.310000", "113050.312000", "113050.314000", "113050.316000", "113050.318000", "113050.320000", "113050.322000", "113050.324000", "113050.326000", "113050.328000", "113050.330000", "113050.332000", "113050.334000", "113050.336000", "113050.338000", "113050.340000", "113050.346000", "113050.348000", "113050.350000", "113050.352000", "113130.310000", "113130.312000", "113130.314000", "113130.316000", "113130.318000", "113130.320000", "113130.322000", "113130.324000", "113130.326000", "113130.328000", "113130.330000", "113130.332000", "113130.334000", "113130.336000", "113130.338000", "113130.340000", "113130.342000", "113130.343000", "113130.345000", "113130.347000", "113210.309000", "113210.311000", "113210.313000", "113210.315000", "113210.317000", "113210.319000", "113210.321000", "113210.323000", "113210.325000", "113210.327000", "113210.329000", "113210.331000", "113210.333000", "113210.335000", "113210.337000", "113210.339000", "113210.340000", "113210.342000", "113210.344000", "113210.346000", "113250.309000", "113250.311000", "113250.313000", "113250.315000", "113250.317000", "113250.319000", "113250.321000", "113250.323000", "113250.325000", "113250.327000", "113250.329000", "113250.331000", "113250.333000", "113250.335000", "113250.337000", "113250.338000", "113250.340000", "113250.342000", "113250.344000", "113250.346000", "113330.310000", "113330.312000", "113330.314000", "113330.316000", "113330.318000", "113330.320000", "113330.322000", "113330.324000", "113330.326000", "113330.328000", "113330.330000", "113330.332000", "113330.334000", "113330.336000", "113330.338000", "113330.340000", "113330.342000", "113330.343000", "113330.345000", "113330.347000", "113350.310000", "113350.312000", "113350.314000", "113350.316000", "113350.318000", "113350.320000", "113350.322000", "113350.324000", "113350.326000", "113350.328000", "113430.309000", "113430.311000", "113430.313000", "113430.315000", "113430.317000", "113430.319000", "113430.321000", "113430.323000", "113430.325000", "113430.327000", "113430.329000", "113430.331000", "113430.333000", "113430.335000", "113430.337000", "113430.339000", "113430.341000", "113430.343000", "113430.344000", "113430.346000", "113510.309000", "113510.311000", "113510.313000", "113510.315000", "113510.317000", "113510.319000", "113510.321000", "113510.323000", "113510.325000", "113510.327000", "113510.329000", "113510.331000", "113510.333000", "113510.335000", "113510.337000", "113510.353000", "113510.355000", "113510.357000", "113510.359000", "113510.361000", "113550.310000", "113550.312000", "113550.314000", "113550.316000", "113550.318000", "113550.320000", "113550.322000", "113550.324000", "113550.326000", "113550.328000", "113550.330000", "113550.332000", "113550.334000", "113550.336000", "113550.338000", "113550.339000", "113550.341000", "113550.343000", "113550.345000", "113550.347000", "113630.310000", "113630.312000", "113630.314000", "113630.316000", "113630.318000", "113630.320000", "113630.322000", "113630.324000", "113630.326000", "113630.328000", "113630.330000", "113630.332000", "113630.334000", "113630.336000", "113630.338000", "113630.340000", "113630.342000", "113630.344000", "113630.346000", "113630.348000", "113710.309000", "113710.311000", "113710.313000", "113710.315000", "113710.317000", "113710.319000", "113710.321000", "113710.323000", "113710.325000", "113710.327000", "113710.329000", "113710.331000", "113710.333000", "113710.335000", "113710.337000", "113710.339000", "113710.341000", "113710.343000", "113710.345000", "113710.347000", "113750.310000", "113750.312000", "113750.314000", "113750.316000", "113750.318000", "113750.320000", "113750.322000", "113750.324000", "113750.326000", "113750.328000", "113750.330000", "113750.332000", "113750.334000", "113750.336000", "113750.338000", "113750.340000", "113750.342000", "113750.344000", "113750.346000", "113750.348000", "113830.310000", "113830.312000", "113830.314000", "113830.316000", "113830.318000", "113830.320000", "113830.322000", "113830.324000", "113830.326000", "113830.328000", "113830.330000", "113830.332000", "113830.334000", "113830.336000", "113830.338000", "113830.340000", "113830.342000", "113830.343000", "113830.345000", "113830.347000", "113910.309000", "113910.312000", "113910.314000", "113910.315000", "113910.317000", "113910.319000", "113910.321000", "113910.323000", "113910.325000", "113910.327000", "113910.329000", "113910.331000", "113910.333000", "113910.335000", "113910.337000", "113910.339000", "113910.341000", "113910.343000", "113910.345000", "113910.347000", "113920.558000", "113920.560000", "113920.562000", "113920.564000", "113920.566000", "113920.568000"],
      "InstanceNumber": [1, 2, 3, 4, 5, 6, 7, 8, 9, 10, 11, 12, 13, 14, 15, 16, 17, 18, 19, 20, 21, 22, 23, 24, 25, 26, 27, 28, 29, 30, 31, 32, 33, 34, 35, 36, 37, 38, 39, 40, 41, 42, 43, 44, 45, 46, 47, 48, 49, 50, 51, 52, 53, 54, 55, 56, 57, 58, 59, 60, 61, 62, 63, 64, 65, 66, 67, 68, 69, 70, 71, 72, 73, 74, 75, 76, 77, 78, 79, 80, 81, 82, 83, 84, 85, 86, 87, 88, 89, 90, 91, 92, 93, 94, 95, 96, 97, 98, 99, 100, 101, 102, 103, 104, 105, 106, 107, 108, 109, 110, 111, 112, 113, 114, 115, 116, 117, 118, 119, 120, 121, 122, 123, 124, 125, 126, 127, 128, 129, 130, 131, 132, 133, 134, 135, 136, 137, 138, 139, 140, 141, 142, 143, 144, 145, 146, 147, 148, 149, 150, 151, 152, 153, 154, 155, 156, 157, 158, 159, 160, 161, 162, 163, 164, 165, 166, 167, 168, 169, 170, 171, 172, 173, 174, 175, 176, 177, 178, 179, 180, 181, 182, 183, 184, 185, 186, 187, 188, 189, 190, 191, 192, 193, 194, 195, 196, 197, 198, 199, 200, 201, 202, 203, 204, 205, 206, 207, 208, 209, 210, 211, 212, 213, 214, 215, 216, 217, 218, 219, 220, 221, 222, 223, 224, 225, 226, 227, 228, 229, 230, 231, 232, 233, 234, 235, 236, 237, 238, 239, 240, 241, 242, 243, 244, 245, 246, 247, 248, 249, 250, 251, 252, 253, 254, 255, 256, 257, 258, 259, 260, 261, 262, 263, 264, 265, 266, 267, 268, 269, 270, 271, 272, 273, 274, 275, 276, 277, 278, 279, 280, 281, 282, 283, 284, 285, 286, 287, 288, 289, 290, 291, 292, 293, 294, 295, 296, 297, 298, 299, 300, 301, 302, 303, 304, 305, 306, 307, 308, 309, 310, 311, 312, 313, 314, 315, 316, 317, 318, 319, 320, 321, 322, 323, 324, 325, 326, 327, 328, 329, 330, 331, 332, 333, 334, 335, 336, 337, 338, 339, 340, 341, 342, 343, 344, 345, 346, 347, 348, 349, 350, 351, 352, 353, 354, 355, 356, 357, 358, 359, 360, 361, 362, 363, 364],
      "LargestImagePixelValue": [2245, 2247, 2252, 2231, 2245, 2248, 2248, 2250, 2246, 2245, 2244, 2249, 2237, 2232, 2239, 2238, 2227, 2235, 2241, 2244, 2240, 2241, 2236, 2228, 2232, 2232, 2228, 2235, 2230, 2232, 2231, 2227, 2228, 2228, 2228, 2228, 2233, 2228, 2220, 2213, 2224, 2228, 2227, 2207, 2222, 2223, 2225, 2222, 2223, 2222, 2224, 2227, 2228, 2221, 2232, 2238, 2230, 2234, 2225, 2232, 2239, 2239, 2224, 2209, 2220, 2227, 2239, 2223, 2218, 2222, 2226, 2228, 2236, 2233, 2240, 2232, 2231, 2232, 2230, 2242, 2243, 2244, 2231, 2235, 2243, 2223, 2220, 2222, 2219, 2224, 2219, 2221, 2227, 2217, 2224, 2218, 2220, 2221, 2210, 2219, 2212, 2216, 2220, 2206, 2210, 2214, 2222, 2217, 2216, 2227, 2230, 2227, 2227, 2216, 2220, 2222, 2224, 2223, 2226, 2229, 2226, 2220, 2224, 2212, 2225, 2234, 2227, 2234, 2221, 2225, 2228, 2215, 2225, 2222, 2223, 2225, 2236, 2227, 2227, 2237, 2233, 2231, 2230, 2221, 2223, 2218, 2218, 2222, 2216, 2229, 2234, 2233, 2243, 2237, 2235, 2232, 2236, 2237, 2255, 2253, 2252, 2247, 2254, 2261, 2250, 2249, 2260, 2246, 2227, 2234, 2239, 2229, 2245, 2251, 2262, 2262, 2258, 2253, 2252, 2242, 2248, 2235, 2252, 2253, 2232, 2241, 2245, 2245, 2234, 2243, 2247, 2246, 2249, 2247, 2250, 2239, 2245, 2248, 2249, 2251, 2238, 2247, 2250, 2255, 2254, 2246, 2250, 2251, 2256, 2257, 2269, 2247, 2236, 2251, 2244, 2257, 2256, 2250, 2251, 2264, 2272, 2252, 2248, 2241, 2257, 2249, 2253, 2257, 2235, 2233, 2247, 2256, 2250, 2252, 2259, 2248, 2244, 2260, 2259, 2246, 2258, 2268, 2256, 2251, 2259, 2271, 2269, 2260, 2262, 2261, 2266, 2257, 2269, 2272, 2266, 2265, 2273, 2268, 2263, 2266, 2269, 2277, 2269, 2274, 2280, 2282, 2276, 2275, 2276, 2272, 2273, 2263, 2265, 2260, 2248, 2260, 2273, 2272, 2278, 2267, 2279, 2277, 2270, 2263, 2260, 2275, 2271, 2268, 2276, 2265, 2260, 2266, 2267, 2273, 2270, 2282, 2277, 2282, 2280, 2287, 2287, 2280, 2267, 2272, 2270, 2282, 2263, 2273, 2274, 2277, 2264, 2270, 2271, 2274, 2266, 2274, 2273, 2270, 2255, 2263, 2266, 2269, 2273, 2267, 2269, 2279, 2274, 2283, 2292, 2286, 2264, 2264, 2261, 2262, 2264, 2270, 2273, 2268, 2269, 2268, 2267, 2272, 2274, 2277, 2262, 2270, 2266, 2273, 2270, 2274, 2264, 2259, 2272, 2285, 2280, 2270, 2267, 2275, 2273, 2269, 2287, 2280, 2269, 2276],
