{
  "AcquisitionMatrixPE": 64,
  "AcquisitionNumber": 1,
  "AcquisitionTime": "15:35:1.912500",
  "BandwidthPerPixelPhaseEncode": 25.202,
  "BaseResolution": 64,
  "BodyPartExamined": "BRAIN",
  "ConsistencyInfo": "N4_VE11C_LATEST_20160120",
  "ConversionSoftware": "dcm2niix",
  "ConversionSoftwareVersion": "v1.0.20201102",
  "DerivedVendorReportedEchoSpacing": 0.00061999,
  "DeviceSerialNumber": "45758",
  "DwellTime": 4.3e-06,
  "EchoTime": 0.03,
  "EchoTrainLength": 64,
  "EffectiveEchoSpacing": 0.00061999,
  "FlipAngle": 90,
  "ImageOrientationPatientDICOM": [0.998804, -0.000402592, 0.0488848, -1.9509e-11, 0.999966, 0.00823524],
  "ImageType": [
    "ORIGINAL",
    "PRIMARY",
    "M",
    "ND",
    "MOSAIC"
],
  "ImagingFrequency": 123.2,
  "InPlanePhaseEncodingDirectionDICOM": "ROW",
  "InstitutionAddress": "Street StreetNo,City /652E4B/,District,KR,ZIP",
  "InstitutionName": "DGMIF",
  "InstitutionalDepartmentName": "Department",
  "MRAcquisitionType": "2D",
  "MagneticFieldStrength": 3,
  "Manufacturer": "Siemens",
  "ManufacturersModelName": "Skyra",
  "Modality": "MR",
  "PartialFourier": 1,
  "PatientPosition": "HFS",
  "PercentPhaseFOV": 100,
  "PercentSampling": 100,
  "PhaseEncodingDirection": "i",
  "PhaseEncodingSteps": 64,
  "PhaseResolution": 1,
  "PixelBandwidth": 1815,
  "ProcedureStepDescription": "DGMIF^DGIST",
  "ProtocolName": "EPI_DGIST_1",
  "PulseSequenceDetails": "%SiemensSeq%\\ep2d_bold",
  "ReceiveCoilActiveElements": "HC1-6",
  "ReceiveCoilName": "HeadNeck_64",
  "ReconMatrixPE": 64,
  "RepetitionTime": 2,
  "SAR": 0.120275,
  "ScanOptions": "FS",
  "ScanningSequence": "EP",
  "SequenceName": "*epfid2d1_64",
  "SequenceVariant": "SK",
  "SeriesDescription": "EPI_DGIST_1",
  "SeriesNumber": 2,
  "ShimSetting": [-9741, -13668, -8228, 464, -450, -291, -414, -70],
  "SliceThickness": 4,
  "SliceTiming": [0.99, 0, 1.055, 0.065, 1.12, 0.1325, 1.1875, 0.1975, 1.2525, 0.2625, 1.32, 0.33, 1.385, 0.395, 1.45, 0.4625, 1.5175, 0.5275, 1.5825, 0.5925, 1.65, 0.66, 1.715, 0.725, 1.78, 0.79, 1.8475, 0.8575, 1.9125, 0.9225],
  "SoftwareVersions": "syngo MR E11",
  "SpacingBetweenSlices": 4.8,
  "StationName": "AWP45758",
  "TaskName": "asrt",
  "TotalReadoutTime": 0.0390594,
  "TxRefAmp": 314.165,
  "dcmmeta_affine": [
    [-2.996412992477417, -5.852700268871303e-11, 0.23465503752231598, 91.0963363647461],
    [0.001207775087095797, 2.9998981952667236, 0.03948188200592995, -119.17548370361328],
    [0.1466544270515442, -0.024705715477466583, 4.794098377227783, -85.09469604492188],
    [0.0, 0.0, 0.0, 1.0]
],
  "dcmmeta_reorient_transform": [
    [0.0, -1.0, 0.0, 63.0],
    [1.0, 0.0, 0.0, 0.0],
    [0.0, 0.0, 1.0, 0.0],
    [0.0, 0.0, 0.0, 1.0]
],
  "dcmmeta_shape": [64, 64, 30, 514],
  "dcmmeta_slice_dim": 2,
  "dcmmeta_version": 0.6,
  "global": {
    "const": {
      "AcquisitionMatrix": [0, 64, 64, 0],
      "AngioFlag": "N",
      "BitsAllocated": 16,
      "BitsStored": 12,
      "BodyPartExamined": "BRAIN",
      "Columns": 384,
      "EchoNumbers": 1,
      "EchoTime": 30.0,
      "EchoTrainLength": 64,
      "FlipAngle": 90.0,
      "HighBit": 11,
      "ImageOrientationPatient": [0.99880434188502, -0.0004025916782, 0.04888480900613, -1.9509e-11, 0.99996608985108, 0.00823523818367],
      "ImagePositionPatient": [-570.52242247368, -549.60858318733, -114.06878023797],
      "ImageType": [
        "ORIGINAL",
        "PRIMARY",
        "M",
        "ND",
        "MOSAIC"
],
      "ImagedNucleus": "1H",
      "ImagingFrequency": 123.200158,
      "InPlanePhaseEncodingDirection": "ROW",
      "MRAcquisitionType": "2D",
      "MagneticFieldStrength": 3.0,
      "Manufacturer": "SIEMENS",
      "ManufacturerModelName": "Skyra",
      "Modality": "MR",
      "NumberOfAverages": 1.0,
      "NumberOfPhaseEncodingSteps": 64,
      "PercentPhaseFieldOfView": 100.0,
      "PercentSampling": 100.0,
      "PerformedProcedureStepStartTime": "153046.529000",
      "PhotometricInterpretation": "MONOCHROME2",
      "PixelBandwidth": 1815.0,
      "PixelRepresentation": 0,
      "PixelSpacing": [3.0, 3.0],
      "ProtocolName": "EPI_DGIST_1",
      "RepetitionTime": 2000.0,
      "Rows": 384,
      "SAR": 0.12027479551444,
      "SamplesPerPixel": 1,
      "ScanOptions": "FS",
      "ScanningSequence": "EP",
      "SequenceName": "*epfid2d1_64",
      "SequenceVariant": "SK",
      "SeriesDescription": "EPI_DGIST_1",
      "SeriesNumber": 2,
      "SeriesTime": "153546.591000",
      "SliceLocation": -81.516958218693,
      "SliceThickness": 4.0,
      "SmallestImagePixelValue": 0,
      "SoftwareVersions": "syngo MR E11",
      "SpacingBetweenSlices": 4.8000000279493,
      "SpecificCharacterSet": "ISO_IR 100",
      "StudyID": "1",
      "StudyTime": "153046.486000",
      "TransmitCoilName": "Body",
      "VariableFlipAngleFlag": "N",
      "WindowCenterWidthExplanation": "Algo1",
      "dBdt": 0.0},
    "slices": {}
  },
  "time": {
    "samples": {
      "AcquisitionNumber": [1, 2, 3, 4, 5, 6, 7, 8, 9, 10, 11, 12, 13, 14, 15, 16, 17, 18, 19, 20, 21, 22, 23, 24, 25, 26, 27, 28, 29, 30, 31, 32, 33, 34, 35, 36, 37, 38, 39, 40, 41, 42, 43, 44, 45, 46, 47, 48, 49, 50, 51, 52, 53, 54, 55, 56, 57, 58, 59, 60, 61, 62, 63, 64, 65, 66, 67, 68, 69, 70, 71, 72, 73, 74, 75, 76, 77, 78, 79, 80, 81, 82, 83, 84, 85, 86, 87, 88, 89, 90, 91, 92, 93, 94, 95, 96, 97, 98, 99, 100, 101, 102, 103, 104, 105, 106, 107, 108, 109, 110, 111, 112, 113, 114, 115, 116, 117, 118, 119, 120, 121, 122, 123, 124, 125, 126, 127, 128, 129, 130, 131, 132, 133, 134, 135, 136, 137, 138, 139, 140, 141, 142, 143, 144, 145, 146, 147, 148, 149, 150, 151, 152, 153, 154, 155, 156, 157, 158, 159, 160, 161, 162, 163, 164, 165, 166, 167, 168, 169, 170, 171, 172, 173, 174, 175, 176, 177, 178, 179, 180, 181, 182, 183, 184, 185, 186, 187, 188, 189, 190, 191, 192, 193, 194, 195, 196, 197, 198, 199, 200, 201, 202, 203, 204, 205, 206, 207, 208, 209, 210, 211, 212, 213, 214, 215, 216, 217, 218, 219, 220, 221, 222, 223, 224, 225, 226, 227, 228, 229, 230, 231, 232, 233, 234, 235, 236, 237, 238, 239, 240, 241, 242, 243, 244, 245, 246, 247, 248, 249, 250, 251, 252, 253, 254, 255, 256, 257, 258, 259, 260, 261, 262, 263, 264, 265, 266, 267, 268, 269, 270, 271, 272, 273, 274, 275, 276, 277, 278, 279, 280, 281, 282, 283, 284, 285, 286, 287, 288, 289, 290, 291, 292, 293, 294, 295, 296, 297, 298, 299, 300, 301, 302, 303, 304, 305, 306, 307, 308, 309, 310, 311, 312, 313, 314, 315, 316, 317, 318, 319, 320, 321, 322, 323, 324, 325, 326, 327, 328, 329, 330, 331, 332, 333, 334, 335, 336, 337, 338, 339, 340, 341, 342, 343, 344, 345, 346, 347, 348, 349, 350, 351, 352, 353, 354, 355, 356, 357, 358, 359, 360, 361, 362, 363, 364, 365, 366, 367, 368, 369, 370, 371, 372, 373, 374, 375, 376, 377, 378, 379, 380, 381, 382, 383, 384, 385, 386, 387, 388, 389, 390, 391, 392, 393, 394, 395, 396, 397, 398, 399, 400, 401, 402, 403, 404, 405, 406, 407, 408, 409, 410, 411, 412, 413, 414, 415, 416, 417, 418, 419, 420, 421, 422, 423, 424, 425, 426, 427, 428, 429, 430, 431, 432, 433, 434, 435, 436, 437, 438, 439, 440, 441, 442, 443, 444, 445, 446, 447, 448, 449, 450, 451, 452, 453, 454, 455, 456, 457, 458, 459, 460, 461, 462, 463, 464, 465, 466, 467, 468, 469, 470, 471, 472, 473, 474, 475, 476, 477, 478, 479, 480, 481, 482, 483, 484, 485, 486, 487, 488, 489, 490, 491, 492, 493, 494, 495, 496, 497, 498, 499, 500, 501, 502, 503, 504, 505, 506, 507, 508, 509, 510, 511, 512, 513, 514],
      "AcquisitionTime": ["153501.912500", "153503.912500", "153505.912500", "153507.912500", "153509.912500", "153511.912500", "153513.912500", "153515.912500", "153517.912500", "153519.912500", "153521.912500", "153523.912500", "153525.912500", "153527.912500", "153529.912500", "153531.912500", "153533.912500", "153535.912500", "153537.912500", "153539.912500", "153541.912500", "153543.912500", "153545.912500", "153547.912500", "153549.912500", "153551.912500", "153553.912500", "153555.912500", "153557.912500", "153559.912500", "153601.912500", "153603.912500", "153605.912500", "153607.912500", "153609.912500", "153611.912500", "153613.912500", "153615.912500", "153617.912500", "153619.912500", "153621.912500", "153623.912500", "153625.912500", "153627.912500", "153629.912500", "153631.912500", "153633.912500", "153635.912500", "153637.912500", "153639.912500", "153641.912500", "153643.912500", "153645.912500", "153647.912500", "153649.912500", "153651.912500", "153653.912500", "153655.912500", "153657.912500", "153659.912500", "153701.912500", "153703.912500", "153705.912500", "153707.912500", "153709.912500", "153711.912500", "153713.912500", "153715.912500", "153717.912500", "153719.912500", "153721.912500", "153723.912500", "153725.912500", "153727.912500", "153729.912500", "153731.912500", "153733.912500", "153735.912500", "153737.912500", "153739.912500", "153741.912500", "153743.912500", "153745.912500", "153747.912500", "153749.912500", "153751.912500", "153753.912500", "153755.912500", "153757.912500", "153759.912500", "153801.912500", "153803.912500", "153805.912500", "153807.912500", "153809.912500", "153811.912500", "153813.912500", "153815.912500", "153817.912500", "153819.912500", "153821.912500", "153823.912500", "153825.912500", "153827.912500", "153829.912500", "153831.912500", "153833.912500", "153835.912500", "153837.912500", "153839.912500", "153841.912500", "153843.912500", "153845.912500", "153847.912500", "153849.912500", "153851.912500", "153853.912500", "153855.912500", "153857.912500", "153859.912500", "153901.912500", "153903.912500", "153905.912500", "153907.912500", "153909.912500", "153911.912500", "153913.912500", "153915.912500", "153917.912500", "153919.912500", "153921.912500", "153923.912500", "153925.912500", "153927.912500", "153929.912500", "153931.912500", "153933.912500", "153935.912500", "153937.912500", "153939.912500", "153941.912500", "153943.912500", "153945.912500", "153947.912500", "153949.912500", "153951.912500", "153953.912500", "153955.912500", "153957.912500", "153959.912500", "154001.912500", "154003.912500", "154005.912500", "154007.912500", "154009.912500", "154011.912500", "154013.912500", "154015.912500", "154017.912500", "154019.912500", "154021.912500", "154023.912500", "154025.912500", "154027.912500", "154029.912500", "154031.912500", "154033.912500", "154035.912500", "154037.912500", "154039.912500", "154041.912500", "154043.912500", "154045.912500", "154047.912500", "154049.912500", "154051.912500", "154053.912500", "154055.912500", "154057.912500", "154059.912500", "154101.912500", "154103.912500", "154105.912500", "154107.912500", "154109.912500", "154111.912500", "154113.912500", "154115.912500", "154117.912500", "154119.912500", "154121.912500", "154123.912500", "154125.912500", "154127.912500", "154129.912500", "154131.912500", "154133.912500", "154135.912500", "154137.912500", "154139.912500", "154141.912500", "154143.912500", "154145.912500", "154147.912500", "154149.912500", "154151.912500", "154153.912500", "154155.912500", "154157.912500", "154159.912500", "154201.912500", "154203.912500", "154205.912500", "154207.912500", "154209.912500", "154211.912500", "154213.912500", "154215.912500", "154217.912500", "154219.912500", "154221.912500", "154223.912500", "154225.912500", "154227.912500", "154229.912500", "154231.912500", "154233.912500", "154235.912500", "154237.912500", "154239.912500", "154241.912500", "154243.912500", "154245.912500", "154247.912500", "154249.912500", "154251.912500", "154253.912500", "154255.912500", "154257.912500", "154259.912500", "154301.912500", "154303.912500", "154305.912500", "154307.912500", "154309.912500", "154311.912500", "154313.912500", "154315.912500", "154317.912500", "154319.912500", "154321.912500", "154323.912500", "154325.912500", "154327.912500", "154329.912500", "154331.912500", "154333.912500", "154335.912500", "154337.912500", "154339.912500", "154341.912500", "154343.912500", "154345.912500", "154347.912500", "154349.912500", "154351.912500", "154353.912500", "154355.912500", "154357.912500", "154359.912500", "154401.912500", "154403.912500", "154405.912500", "154407.912500", "154409.912500", "154411.912500", "154413.912500", "154415.912500", "154417.912500", "154419.912500", "154421.912500", "154423.912500", "154425.912500", "154427.912500", "154429.912500", "154431.912500", "154433.912500", "154435.912500", "154437.912500", "154439.912500", "154441.912500", "154443.912500", "154445.912500", "154447.912500", "154449.912500", "154451.912500", "154453.912500", "154455.912500", "154457.912500", "154459.912500", "154501.912500", "154503.912500", "154505.912500", "154507.912500", "154509.912500", "154511.912500", "154513.912500", "154515.912500", "154517.912500", "154519.912500", "154521.912500", "154523.912500", "154525.912500", "154527.912500", "154529.912500", "154531.912500", "154533.912500", "154535.912500", "154537.912500", "154539.912500", "154541.912500", "154543.912500", "154545.912500", "154547.912500", "154549.912500", "154551.912500", "154553.912500", "154555.912500", "154557.912500", "154559.912500", "154601.912500", "154603.912500", "154605.912500", "154607.912500", "154609.912500", "154611.912500", "154613.912500", "154615.912500", "154617.912500", "154619.912500", "154621.912500", "154623.912500", "154625.912500", "154627.912500", "154629.912500", "154631.912500", "154633.912500", "154635.912500", "154637.912500", "154639.912500", "154641.912500", "154643.912500", "154645.912500", "154647.912500", "154649.912500", "154651.912500", "154653.912500", "154655.912500", "154657.912500", "154659.912500", "154701.912500", "154703.912500", "154705.912500", "154707.912500", "154709.912500", "154711.912500", "154713.912500", "154715.912500", "154717.912500", "154719.912500", "154721.912500", "154723.912500", "154725.912500", "154727.912500", "154729.912500", "154731.912500", "154733.912500", "154735.912500", "154737.912500", "154739.912500", "154741.912500", "154743.912500", "154745.912500", "154747.912500", "154749.912500", "154751.912500", "154753.912500", "154755.912500", "154757.912500", "154759.912500", "154801.912500", "154803.912500", "154805.912500", "154807.912500", "154809.912500", "154811.912500", "154813.912500", "154815.912500", "154817.912500", "154819.912500", "154821.912500", "154823.912500", "154825.912500", "154827.912500", "154829.912500", "154831.912500", "154833.912500", "154835.912500", "154837.912500", "154839.912500", "154841.912500", "154843.912500", "154845.912500", "154847.912500", "154849.912500", "154851.912500", "154853.912500", "154855.912500", "154857.912500", "154859.912500", "154901.912500", "154903.912500", "154905.912500", "154907.912500", "154909.912500", "154911.912500", "154913.912500", "154915.912500", "154917.912500", "154919.912500", "154921.912500", "154923.912500", "154925.912500", "154927.912500", "154929.912500", "154931.912500", "154933.912500", "154935.912500", "154937.912500", "154939.912500", "154941.912500", "154943.912500", "154945.912500", "154947.912500", "154949.912500", "154951.912500", "154953.912500", "154955.912500", "154957.912500", "154959.912500", "155001.912500", "155003.912500", "155005.912500", "155007.912500", "155009.912500", "155011.912500", "155013.912500", "155015.912500", "155017.912500", "155019.912500", "155021.912500", "155023.912500", "155025.912500", "155027.912500", "155029.912500", "155031.912500", "155033.912500", "155035.912500", "155037.912500", "155039.912500", "155041.912500", "155043.912500", "155045.912500", "155047.912500", "155049.912500", "155051.912500", "155053.912500", "155055.912500", "155057.912500", "155059.912500", "155101.912500", "155103.912500", "155105.912500", "155107.912500", "155109.912500", "155111.912500", "155113.912500", "155115.912500", "155117.912500", "155119.912500", "155121.912500", "155123.912500", "155125.912500", "155127.912500", "155129.912500", "155131.912500", "155133.912500", "155135.912500", "155137.912500", "155139.912500", "155141.912500", "155143.912500", "155145.912500", "155147.912500", "155149.912500", "155151.912500", "155153.912500", "155155.912500", "155157.912500", "155159.912500", "155201.912500", "155203.912500", "155205.912500", "155207.912500"],
      "ContentTime": ["153546.594000", "153546.598000", "153546.600000", "153546.603000", "153546.605000", "153546.614000", "153546.617000", "153546.619000", "153546.622000", "153546.624000", "153546.627000", "153546.629000", "153546.631000", "153546.634000", "153546.636000", "153546.639000", "153546.641000", "153546.646000", "153546.649000", "153546.651000", "153546.654000", "153546.673000", "153626.589000", "153626.593000", "153626.595000", "153626.598000", "153626.600000", "153626.603000", "153626.605000", "153626.608000", "153626.610000", "153626.613000", "153626.616000", "153626.618000", "153626.620000", "153626.623000", "153626.626000", "153626.628000", "153626.631000", "153626.633000", "153626.636000", "153626.638000", "153706.589000", "153706.592000", "153706.595000", "153706.597000", "153706.600000", "153706.602000", "153706.604000", "153706.607000", "153706.609000", "153706.612000", "153706.614000", "153706.617000", "153706.619000", "153706.622000", "153706.624000", "153706.627000", "153706.629000", "153706.631000", "153706.634000", "153706.636000", "153746.590000", "153746.593000", "153746.596000", "153746.598000", "153746.600000", "153746.603000", "153746.605000", "153746.608000", "153746.610000", "153746.613000", "153746.615000", "153746.617000", "153746.620000", "153746.622000", "153746.625000", "153746.627000", "153746.630000", "153746.632000", "153746.634000", "153746.637000", "153826.589000", "153826.592000", "153826.595000", "153826.597000", "153826.600000", "153826.602000", "153826.605000", "153826.607000", "153826.610000", "153826.612000", "153826.614000", "153826.617000", "153826.619000", "153826.622000", "153826.624000", "153826.627000", "153826.629000", "153826.631000", "153826.634000", "153826.636000", "153906.589000", "153906.592000", "153906.595000", "153906.597000", "153906.600000", "153906.602000", "153906.604000", "153906.607000", "153906.609000", "153906.612000", "153906.614000", "153906.617000", "153906.619000", "153906.622000", "153906.624000", "153906.627000", "153906.629000", "153906.632000", "153906.634000", "153906.636000", "153946.589000", "153946.592000", "153946.594000", "153946.597000", "153946.599000", "153946.602000", "153946.604000", "153946.607000", "153946.609000", "153946.612000", "153946.614000", "153946.616000", "153946.619000", "153946.621000", "153946.624000", "153946.626000", "153946.629000", "153946.631000", "153946.634000", "153946.636000", "154026.589000", "154026.592000", "154026.594000", "154026.597000", "154026.599000", "154026.602000", "154026.604000", "154026.607000", "154026.609000", "154026.612000", "154026.614000", "154026.617000", "154026.619000", "154026.622000", "154026.624000", "154026.627000", "154026.629000", "154026.632000", "154026.634000", "154026.636000", "154106.589000", "154106.592000", "154106.595000", "154106.597000", "154106.599000", "154106.602000", "154106.604000", "154106.607000", "154106.609000", "154106.612000", "154106.614000", "154106.617000", "154106.619000", "154106.622000", "154106.624000", "154106.627000", "154106.629000", "154106.632000", "154106.634000", "154106.636000", "154146.589000", "154146.592000", "154146.595000", "154146.597000", "154146.600000", "154146.602000", "154146.604000", "154146.607000", "154146.609000", "154146.612000", "154146.614000", "154146.617000", "154146.619000", "154146.622000", "154146.624000", "154146.626000", "154146.629000", "154146.631000", "154146.634000", "154146.636000", "154226.590000", "154226.593000", "154226.595000", "154226.598000", "154226.600000", "154226.603000", "154226.605000", "154226.608000", "154226.610000", "154226.613000", "154226.615000", "154226.618000", "154226.620000", "154226.622000", "154226.625000", "154226.627000", "154226.630000", "154226.632000", "154226.635000", "154226.637000", "154306.589000", "154306.592000", "154306.595000", "154306.597000", "154306.599000", "154306.602000", "154306.604000", "154306.607000", "154306.609000", "154306.612000", "154306.614000", "154306.617000", "154306.619000", "154306.621000", "154306.624000", "154306.626000", "154306.629000", "154306.631000", "154306.634000", "154306.636000", "154346.589000", "154346.592000", "154346.595000", "154346.597000", "154346.600000", "154346.602000", "154346.604000", "154346.607000", "154346.609000", "154346.612000", "154346.614000", "154346.617000", "154346.619000", "154346.622000", "154346.624000", "154346.627000", "154346.629000", "154346.632000", "154346.634000", "154346.636000", "154426.589000", "154426.592000", "154426.595000", "154426.597000", "154426.600000", "154426.602000", "154426.604000", "154426.607000", "154426.609000", "154426.612000", "154426.614000", "154426.617000", "154426.619000", "154426.622000", "154426.624000", "154426.626000", "154426.629000", "154426.631000", "154426.634000", "154426.636000", "154506.589000", "154506.592000", "154506.595000", "154506.597000", "154506.600000", "154506.602000", "154506.604000", "154506.607000", "154506.609000", "154506.612000", "154506.614000", "154506.617000", "154506.619000", "154506.622000", "154506.624000", "154506.627000", "154506.629000", "154506.631000", "154506.634000", "154506.636000", "154546.589000", "154546.592000", "154546.595000", "154546.597000", "154546.600000", "154546.602000", "154546.604000", "154546.607000", "154546.609000", "154546.612000", "154546.614000", "154546.617000", "154546.619000", "154546.622000", "154546.624000", "154546.626000", "154546.629000", "154546.631000", "154546.634000", "154546.636000", "154626.590000", "154626.592000", "154626.595000", "154626.597000", "154626.600000", "154626.602000", "154626.604000", "154626.607000", "154626.609000", "154626.612000", "154626.614000", "154626.617000", "154626.619000", "154626.621000", "154626.624000", "154626.626000", "154626.629000", "154626.631000", "154626.634000", "154626.636000", "154706.590000", "154706.593000", "154706.596000", "154706.598000", "154706.601000", "154706.603000", "154706.606000", "154706.608000", "154706.610000", "154706.613000", "154706.615000", "154706.618000", "154706.620000", "154706.623000", "154706.625000", "154706.628000", "154706.630000", "154706.632000", "154706.635000", "154706.653000", "154746.589000", "154746.592000", "154746.595000", "154746.597000", "154746.599000", "154746.602000", "154746.604000", "154746.607000", "154746.609000", "154746.612000", "154746.614000", "154746.617000", "154746.619000", "154746.622000", "154746.624000", "154746.627000", "154746.629000", "154746.632000", "154746.634000", "154746.636000", "154826.589000", "154826.592000", "154826.595000", "154826.597000", "154826.600000", "154826.602000", "154826.605000", "154826.607000", "154826.609000", "154826.612000", "154826.614000", "154826.617000", "154826.619000", "154826.622000", "154826.624000", "154826.626000", "154826.629000", "154826.631000", "154826.634000", "154826.636000", "154906.589000", "154906.592000", "154906.595000", "154906.597000", "154906.600000", "154906.602000", "154906.605000", "154906.607000", "154906.609000", "154906.612000", "154906.614000", "154906.617000", "154906.619000", "154906.622000", "154906.624000", "154906.627000", "154906.629000", "154906.631000", "154906.634000", "154906.636000", "154946.589000", "154946.592000", "154946.595000", "154946.597000", "154946.600000", "154946.602000", "154946.605000", "154946.607000", "154946.610000", "154946.612000", "154946.615000", "154946.617000", "154946.620000", "154946.622000", "154946.624000", "154946.627000", "154946.629000", "154946.632000", "154946.634000", "154946.637000", "155026.590000", "155026.592000", "155026.595000", "155026.597000", "155026.600000", "155026.602000", "155026.605000", "155026.607000", "155026.610000", "155026.612000", "155026.614000", "155026.617000", "155026.619000", "155026.622000", "155026.624000", "155026.627000", "155026.629000", "155026.632000", "155026.634000", "155026.637000", "155106.590000", "155106.592000", "155106.595000", "155106.597000", "155106.600000", "155106.602000", "155106.605000", "155106.607000", "155106.610000", "155106.612000", "155106.614000", "155106.617000", "155106.619000", "155106.622000", "155106.624000", "155106.627000", "155106.629000", "155106.632000", "155106.634000", "155106.637000", "155146.590000", "155146.593000", "155146.596000", "155146.598000", "155146.601000", "155146.603000", "155146.606000", "155146.608000", "155146.611000", "155146.613000", "155146.616000", "155146.618000", "155146.620000", "155146.623000", "155146.625000", "155146.628000", "155146.630000", "155146.633000", "155146.635000", "155146.638000", "155209.269000", "155209.272000", "155209.275000", "155209.278000", "155209.280000", "155209.283000", "155209.285000", "155209.288000", "155209.290000", "155209.293000", "155209.295000", "155209.298000"],
