{
  "AcquisitionMatrixPE": 64,
  "AcquisitionNumber": 1,
  "AcquisitionTime": "10:27:54.210000",
  "BandwidthPerPixelPhaseEncode": 25.202,
  "BaseResolution": 64,
  "BodyPartExamined": "BRAIN",
  "ConsistencyInfo": "N4_VD13C_LATEST_20121124",
  "ConversionSoftware": "dcm2niix",
  "ConversionSoftwareVersion": "v1.0.20201102",
  "DerivedVendorReportedEchoSpacing": 0.00061999,
  "DeviceSerialNumber": "45758",
  "DwellTime": 4.3e-06,
  "EchoTime": 0.03,
  "EchoTrainLength": 64,
  "EffectiveEchoSpacing": 0.00061999,
  "FlipAngle": 90,
  "ImageOrientationPatientDICOM": [0.999544, -0.0217323, -0.0209686, 0.0191922, 0.993233, -0.11454],
  "ImageType": [
    "ORIGINAL",
    "PRIMARY",
    "M",
    "ND",
    "MOSAIC"
],
  "ImagingFrequency": 123.2,
  "InPlanePhaseEncodingDirectionDICOM": "ROW",
  "InstitutionAddress": "Street StreetNo,City /652E4B/,District,KR,ZIP",
  "InstitutionName": "DGMIF",
  "InstitutionalDepartmentName": "Department",
  "MRAcquisitionType": "2D",
  "MagneticFieldStrength": 3,
  "Manufacturer": "Siemens",
  "ManufacturersModelName": "Skyra",
  "Modality": "MR",
  "PartialFourier": 1,
  "PatientPosition": "HFS",
  "PercentPhaseFOV": 100,
  "PercentSampling": 100,
  "PhaseEncodingDirection": "i",
  "PhaseEncodingSteps": 64,
  "PhaseResolution": 1,
  "PixelBandwidth": 1815,
  "ProcedureStepDescription": "DGMIF^DGIST_Jeon",
  "ProtocolName": "EPI_DGIST_2",
  "PulseSequenceDetails": "%SiemensSeq%\\ep2d_bold",
  "ReceiveCoilActiveElements": "HC1-7",
  "ReceiveCoilName": "HeadNeck_64",
  "ReconMatrixPE": 64,
  "RepetitionTime": 2,
  "SAR": 0.1304,
  "ScanOptions": "FS",
  "ScanningSequence": "EP",
  "SequenceName": "*epfid2d1_64",
  "SequenceVariant": "SK",
  "SeriesDescription": "EPI_DGIST_2",
  "SeriesNumber": 5,
  "ShimSetting": [-9753, -13688, -8259, 217, -268, -301, -147, -149],
  "SliceThickness": 4,
  "SliceTiming": [0.9875, 0, 1.055, 0.065, 1.12, 0.13, 1.1875, 0.1975, 1.2525, 0.2625, 1.3175, 0.3275, 1.385, 0.395, 1.45, 0.46, 1.5175, 0.5275, 1.5825, 0.5925, 1.6475, 0.6575, 1.715, 0.725, 1.78, 0.79, 1.8475, 0.8575, 1.9125, 0.9225],
  "SoftwareVersions": "syngo MR D13C",
  "SpacingBetweenSlices": 4.8,
  "StationName": "AWP45758",
  "TaskName": "asrt",
  "TotalReadoutTime": 0.0390594,
  "TxRefAmp": 302.2,
  "dcmmeta_affine": [
    [-2.998631715774536, 0.05757666751742363, -0.11191626638174057, 89.7640609741211],
    [0.06519676744937897, 2.9796998500823975, -0.5476073026657104, -120.134765625],
    [-0.06290572136640549, 0.34361860156059265, 4.76734733581543, -61.54439163208008],
    [0.0, 0.0, 0.0, 1.0]
],
  "dcmmeta_reorient_transform": [
    [0.0, -1.0, 0.0, 63.0],
    [1.0, 0.0, 0.0, 0.0],
    [0.0, 0.0, 1.0, 0.0],
    [0.0, 0.0, 0.0, 1.0]
],
  "dcmmeta_shape": [64, 64, 30, 364],
  "dcmmeta_slice_dim": 2,
  "dcmmeta_version": 0.6,
  "global": {
    "const": {
      "AcquisitionMatrix": [0, 64, 64, 0],
      "AngioFlag": "N",
      "BitsAllocated": 16,
      "BitsStored": 12,
      "BodyPartExamined": "BRAIN",
      "Columns": 384,
      "EchoNumbers": 1,
      "EchoTime": 30.0,
      "EchoTrainLength": 64,
      "FlipAngle": 90.0,
      "HighBit": 11,
      "ImageOrientationPatient": [0.99954390995578, -0.0217322563989, -0.0209685741556, 0.01919222305707, 0.99323328275648, -0.1145395329085],
      "ImagePositionPatient": [-582.38473646184, -533.90681866001, 25.147472525394],
      "ImageType": [
        "ORIGINAL",
        "PRIMARY",
        "M",
        "ND",
        "MOSAIC"
],
      "ImagedNucleus": "1H",
      "ImagingFrequency": 123.200203,
      "InPlanePhaseEncodingDirection": "ROW",
      "MRAcquisitionType": "2D",
      "MagneticFieldStrength": 3.0,
      "Manufacturer": "SIEMENS",
      "ManufacturerModelName": "Skyra",
      "Modality": "MR",
      "NumberOfAverages": 1.0,
      "NumberOfPhaseEncodingSteps": 64,
      "PercentPhaseFieldOfView": 100.0,
      "PercentSampling": 100.0,
      "PerformedProcedureStepStartTime": "091819.506000",
      "PhotometricInterpretation": "MONOCHROME2",
      "PixelBandwidth": 1815.0,
      "PixelRepresentation": 0,
      "PixelSpacing": [3.0, 3.0],
      "ProtocolName": "EPI_DGIST_2",
      "RepetitionTime": 2000.0,
      "Rows": 384,
      "SAR": 0.1303997240573,
      "SamplesPerPixel": 1,
      "ScanOptions": "FS",
      "ScanningSequence": "EP",
      "SequenceName": "*epfid2d1_64",
      "SequenceVariant": "SK",
      "SeriesDescription": "EPI_DGIST_2",
      "SeriesNumber": 5,
      "SeriesTime": "102758.877000",
      "SliceLocation": -49.513098006758,
      "SliceThickness": 4.0,
      "SmallestImagePixelValue": 0,
      "SoftwareVersions": "syngo MR D13C",
      "SpacingBetweenSlices": 4.8000000251723,
      "SpecificCharacterSet": "ISO_IR 100",
      "StudyID": "1",
      "StudyTime": "091819.362000",
      "TimeOfLastCalibration": ["123723.000000", "123723.000000"],
      "TransmitCoilName": "Body",
      "VariableFlipAngleFlag": "N",
      "WindowCenterWidthExplanation": "Algo1",
      "dBdt": 0.0},
    "slices": {}
  },
  "time": {
    "samples": {
      "AcquisitionNumber": [1, 2, 3, 4, 5, 6, 7, 8, 9, 10, 11, 12, 13, 14, 15, 16, 17, 18, 19, 20, 21, 22, 23, 24, 25, 26, 27, 28, 29, 30, 31, 32, 33, 34, 35, 36, 37, 38, 39, 40, 41, 42, 43, 44, 45, 46, 47, 48, 49, 50, 51, 52, 53, 54, 55, 56, 57, 58, 59, 60, 61, 62, 63, 64, 65, 66, 67, 68, 69, 70, 71, 72, 73, 74, 75, 76, 77, 78, 79, 80, 81, 82, 83, 84, 85, 86, 87, 88, 89, 90, 91, 92, 93, 94, 95, 96, 97, 98, 99, 100, 101, 102, 103, 104, 105, 106, 107, 108, 109, 110, 111, 112, 113, 114, 115, 116, 117, 118, 119, 120, 121, 122, 123, 124, 125, 126, 127, 128, 129, 130, 131, 132, 133, 134, 135, 136, 137, 138, 139, 140, 141, 142, 143, 144, 145, 146, 147, 148, 149, 150, 151, 152, 153, 154, 155, 156, 157, 158, 159, 160, 161, 162, 163, 164, 165, 166, 167, 168, 169, 170, 171, 172, 173, 174, 175, 176, 177, 178, 179, 180, 181, 182, 183, 184, 185, 186, 187, 188, 189, 190, 191, 192, 193, 194, 195, 196, 197, 198, 199, 200, 201, 202, 203, 204, 205, 206, 207, 208, 209, 210, 211, 212, 213, 214, 215, 216, 217, 218, 219, 220, 221, 222, 223, 224, 225, 226, 227, 228, 229, 230, 231, 232, 233, 234, 235, 236, 237, 238, 239, 240, 241, 242, 243, 244, 245, 246, 247, 248, 249, 250, 251, 252, 253, 254, 255, 256, 257, 258, 259, 260, 261, 262, 263, 264, 265, 266, 267, 268, 269, 270, 271, 272, 273, 274, 275, 276, 277, 278, 279, 280, 281, 282, 283, 284, 285, 286, 287, 288, 289, 290, 291, 292, 293, 294, 295, 296, 297, 298, 299, 300, 301, 302, 303, 304, 305, 306, 307, 308, 309, 310, 311, 312, 313, 314, 315, 316, 317, 318, 319, 320, 321, 322, 323, 324, 325, 326, 327, 328, 329, 330, 331, 332, 333, 334, 335, 336, 337, 338, 339, 340, 341, 342, 343, 344, 345, 346, 347, 348, 349, 350, 351, 352, 353, 354, 355, 356, 357, 358, 359, 360, 361, 362, 363, 364],
      "AcquisitionTime": ["102754.210000", "102756.210000", "102758.210000", "102800.210000", "102802.210000", "102804.210000", "102806.210000", "102808.210000", "102810.210000", "102812.210000", "102814.210000", "102816.210000", "102818.212500", "102820.212500", "102822.212500", "102824.212500", "102826.212500", "102828.212500", "102830.212500", "102832.212500", "102834.212500", "102836.212500", "102838.212500", "102840.212500", "102842.212500", "102844.212500", "102846.212500", "102848.212500", "102850.212500", "102852.212500", "102854.212500", "102856.212500", "102858.212500", "102900.212500", "102902.212500", "102904.212500", "102906.212500", "102908.212500", "102910.212500", "102912.212500", "102914.212500", "102916.212500", "102918.212500", "102920.212500", "102922.212500", "102924.212500", "102926.212500", "102928.212500", "102930.212500", "102932.212500", "102934.212500", "102936.212500", "102938.212500", "102940.212500", "102942.212500", "102944.212500", "102946.212500", "102948.212500", "102950.212500", "102952.212500", "102954.212500", "102956.212500", "102958.212500", "103000.212500", "103002.212500", "103004.212500", "103006.212500", "103008.212500", "103010.212500", "103012.212500", "103014.212500", "103016.212500", "103018.212500", "103020.212500", "103022.212500", "103024.212500", "103026.212500", "103028.212500", "103030.212500", "103032.212500", "103034.212500", "103036.212500", "103038.212500", "103040.212500", "103042.212500", "103044.212500", "103046.212500", "103048.212500", "103050.212500", "103052.212500", "103054.212500", "103056.212500", "103058.212500", "103100.212500", "103102.212500", "103104.212500", "103106.212500", "103108.212500", "103110.212500", "103112.212500", "103114.212500", "103116.212500", "103118.212500", "103120.212500", "103122.212500", "103124.212500", "103126.212500", "103128.212500", "103130.212500", "103132.212500", "103134.212500", "103136.212500", "103138.212500", "103140.212500", "103142.212500", "103144.212500", "103146.212500", "103148.212500", "103150.212500", "103152.212500", "103154.212500", "103156.212500", "103158.212500", "103200.212500", "103202.212500", "103204.212500", "103206.212500", "103208.212500", "103210.212500", "103212.212500", "103214.212500", "103216.212500", "103218.212500", "103220.212500", "103222.212500", "103224.212500", "103226.212500", "103228.212500", "103230.212500", "103232.212500", "103234.212500", "103236.212500", "103238.212500", "103240.212500", "103242.212500", "103244.212500", "103246.212500", "103248.212500", "103250.212500", "103252.212500", "103254.212500", "103256.212500", "103258.212500", "103300.212500", "103302.212500", "103304.212500", "103306.212500", "103308.212500", "103310.212500", "103312.212500", "103314.212500", "103316.212500", "103318.212500", "103320.212500", "103322.212500", "103324.212500", "103326.212500", "103328.212500", "103330.212500", "103332.212500", "103334.212500", "103336.212500", "103338.212500", "103340.212500", "103342.212500", "103344.212500", "103346.212500", "103348.212500", "103350.212500", "103352.212500", "103354.212500", "103356.212500", "103358.212500", "103400.212500", "103402.212500", "103404.212500", "103406.212500", "103408.212500", "103410.212500", "103412.212500", "103414.212500", "103416.212500", "103418.212500", "103420.212500", "103422.212500", "103424.212500", "103426.212500", "103428.212500", "103430.212500", "103432.212500", "103434.212500", "103436.212500", "103438.212500", "103440.212500", "103442.212500", "103444.212500", "103446.212500", "103448.212500", "103450.212500", "103452.212500", "103454.212500", "103456.212500", "103458.212500", "103500.212500", "103502.212500", "103504.212500", "103506.212500", "103508.212500", "103510.212500", "103512.212500", "103514.212500", "103516.212500", "103518.212500", "103520.212500", "103522.212500", "103524.212500", "103526.212500", "103528.212500", "103530.212500", "103532.212500", "103534.212500", "103536.212500", "103538.212500", "103540.212500", "103542.212500", "103544.212500", "103546.212500", "103548.212500", "103550.212500", "103552.212500", "103554.212500", "103556.212500", "103558.212500", "103600.212500", "103602.212500", "103604.212500", "103606.212500", "103608.212500", "103610.212500", "103612.212500", "103614.212500", "103616.212500", "103618.212500", "103620.212500", "103622.212500", "103624.212500", "103626.212500", "103628.212500", "103630.212500", "103632.212500", "103634.212500", "103636.212500", "103638.215000", "103640.215000", "103642.215000", "103644.215000", "103646.215000", "103648.215000", "103650.215000", "103652.215000", "103654.215000", "103656.215000", "103658.215000", "103700.215000", "103702.215000", "103704.215000", "103706.215000", "103708.215000", "103710.215000", "103712.215000", "103714.215000", "103716.215000", "103718.215000", "103720.215000", "103722.215000", "103724.215000", "103726.215000", "103728.215000", "103730.215000", "103732.215000", "103734.215000", "103736.215000", "103738.215000", "103740.215000", "103742.215000", "103744.215000", "103746.215000", "103748.215000", "103750.215000", "103752.215000", "103754.215000", "103756.215000", "103758.215000", "103800.215000", "103802.215000", "103804.215000", "103806.215000", "103808.215000", "103810.215000", "103812.215000", "103814.215000", "103816.215000", "103818.215000", "103820.215000", "103822.215000", "103824.215000", "103826.215000", "103828.215000", "103830.215000", "103832.215000", "103834.215000", "103836.215000", "103838.215000", "103840.215000", "103842.215000", "103844.215000", "103846.215000", "103848.215000", "103850.215000", "103852.215000", "103854.215000", "103856.215000", "103858.215000", "103900.215000", "103902.215000", "103904.215000", "103906.215000", "103908.215000", "103910.215000", "103912.215000", "103914.215000", "103916.215000", "103918.215000", "103920.215000", "103922.215000", "103924.215000", "103926.215000", "103928.215000", "103930.215000", "103932.215000", "103934.215000", "103936.215000", "103938.215000", "103940.215000", "103942.215000", "103944.215000", "103946.215000", "103948.215000", "103950.215000", "103952.215000", "103954.215000", "103956.215000", "103958.215000", "104000.215000"],
      "ContentTime": ["102758.880000", "102758.883000", "102838.864000", "102838.879000", "102838.881000", "102838.883000", "102838.885000", "102838.887000", "102838.889000", "102838.891000", "102838.893000", "102838.895000", "102838.897000", "102838.899000", "102838.901000", "102838.903000", "102838.912000", "102838.914000", "102838.916000", "102838.918000", "102838.920000", "102838.922000", "102918.864000", "102918.866000", "102918.868000", "102918.870000", "102918.872000", "102918.879000", "102918.881000", "102918.883000", "102918.885000", "102918.887000", "102918.889000", "102918.891000", "102918.893000", "102918.895000", "102918.897000", "102918.899000", "102918.901000", "102918.903000", "102918.905000", "102918.915000", "102958.864000", "102958.866000", "102958.871000", "102958.873000", "102958.875000", "102958.877000", "102958.879000", "102958.880000", "102958.882000", "102958.884000", "102958.886000", "102958.888000", "102958.890000", "102958.892000", "102958.894000", "102958.896000", "102958.898000", "102958.901000", "102958.902000", "102958.904000", "103038.863000", "103038.865000", "103038.867000", "103038.869000", "103038.871000", "103038.873000", "103038.875000", "103038.877000", "103038.879000", "103038.881000", "103038.883000", "103038.885000", "103038.886000", "103038.888000", "103038.890000", "103038.892000", "103038.894000", "103038.896000", "103038.898000", "103038.900000", "103118.864000", "103118.866000", "103118.868000", "103118.870000", "103118.872000", "103118.874000", "103118.876000", "103118.878000", "103118.880000", "103118.882000", "103118.884000", "103118.886000", "103118.888000", "103118.890000", "103118.891000", "103118.893000", "103118.895000", "103118.897000", "103118.899000", "103118.901000", "103158.864000", "103158.866000", "103158.868000", "103158.870000", "103158.872000", "103158.874000", "103158.876000", "103158.878000", "103158.880000", "103158.882000", "103158.884000", "103158.886000", "103158.888000", "103158.890000", "103158.892000", "103158.894000", "103158.896000", "103158.898000", "103158.900000", "103158.901000", "103238.864000", "103238.866000", "103238.868000", "103238.870000", "103238.872000", "103238.874000", "103238.876000", "103238.878000", "103238.880000", "103238.882000", "103238.884000", "103238.886000", "103238.888000", "103238.890000", "103238.892000", "103238.893000", "103238.895000", "103238.897000", "103238.899000", "103238.901000", "103318.864000", "103318.866000", "103318.868000", "103318.870000", "103318.872000", "103318.874000", "103318.876000", "103318.878000", "103318.880000", "103318.882000", "103318.884000", "103318.886000", "103318.888000", "103318.890000", "103318.891000", "103318.893000", "103318.895000", "103318.897000", "103318.899000", "103318.901000", "103358.864000", "103358.866000", "103358.868000", "103358.870000", "103358.872000", "103358.874000", "103358.876000", "103358.878000", "103358.880000", "103358.882000", "103358.884000", "103358.886000", "103358.888000", "103358.890000", "103358.891000", "103358.893000", "103358.895000", "103358.897000", "103358.899000", "103358.901000", "103438.864000", "103438.866000", "103438.868000", "103438.870000", "103438.872000", "103438.874000", "103438.876000", "103438.878000", "103438.880000", "103438.882000", "103438.884000", "103438.886000", "103438.888000", "103438.890000", "103438.891000", "103438.893000", "103438.895000", "103438.897000", "103438.899000", "103438.901000", "103518.863000", "103518.865000", "103518.867000", "103518.869000", "103518.871000", "103518.873000", "103518.875000", "103518.877000", "103518.879000", "103518.881000", "103518.883000", "103518.885000", "103518.887000", "103518.888000", "103518.890000", "103518.892000", "103518.894000", "103518.896000", "103518.898000", "103518.900000", "103558.864000", "103558.867000", "103558.869000", "103558.871000", "103558.873000", "103558.875000", "103558.877000", "103558.879000", "103558.881000", "103558.883000", "103558.885000", "103558.887000", "103558.889000", "103558.891000", "103558.892000", "103558.894000", "103558.896000", "103558.898000", "103558.900000", "103558.902000", "103638.864000", "103638.866000", "103638.868000", "103638.870000", "103638.872000", "103638.874000", "103638.876000", "103638.878000", "103638.880000", "103638.882000", "103638.884000", "103638.886000", "103638.888000", "103638.890000", "103638.892000", "103638.894000", "103638.896000", "103638.898000", "103638.900000", "103638.901000", "103658.864000", "103658.866000", "103658.868000", "103658.870000", "103658.872000", "103658.874000", "103658.876000", "103658.878000", "103658.880000", "103658.882000", "103738.863000", "103738.865000", "103738.867000", "103738.869000", "103738.871000", "103738.873000", "103738.875000", "103738.877000", "103738.879000", "103738.881000", "103738.883000", "103738.885000", "103738.887000", "103738.889000", "103738.891000", "103738.893000", "103738.895000", "103738.897000", "103738.899000", "103738.900000", "103818.864000", "103818.866000", "103818.868000", "103818.870000", "103818.872000", "103818.874000", "103818.876000", "103818.878000", "103818.880000", "103818.882000", "103818.884000", "103818.886000", "103818.888000", "103818.890000", "103818.892000", "103818.893000", "103818.895000", "103818.897000", "103818.899000", "103818.901000", "103858.864000", "103858.866000", "103858.868000", "103858.870000", "103858.872000", "103858.874000", "103858.876000", "103858.878000", "103858.880000", "103858.882000", "103858.884000", "103858.886000", "103858.888000", "103858.890000", "103858.892000", "103858.893000", "103858.895000", "103858.897000", "103858.899000", "103858.901000", "103938.863000", "103938.866000", "103938.868000", "103938.870000", "103938.872000", "103938.873000", "103938.875000", "103938.877000", "103938.879000", "103938.881000", "103938.883000", "103938.885000", "103938.887000", "103938.889000", "103938.891000", "103938.893000", "103938.895000", "103938.897000", "103938.899000", "103938.901000", "104002.110000", "104002.112000", "104002.114000", "104002.116000", "104002.118000", "104002.120000", "104002.122000", "104002.124000", "104002.126000", "104002.128000", "104002.130000", "104002.132000"],
      "InstanceCreationTime": ["102758.880000", "102758.883000", "102838.864000", "102838.879000", "102838.881000", "102838.883000", "102838.885000", "102838.887000", "102838.889000", "102838.891000", "102838.893000", "102838.895000", "102838.897000", "102838.899000", "102838.901000", "102838.903000", "102838.912000", "102838.914000", "102838.916000", "102838.918000", "102838.920000", "102838.922000", "102918.864000", "102918.866000", "102918.868000", "102918.870000", "102918.872000", "102918.879000", "102918.881000", "102918.883000", "102918.885000", "102918.887000", "102918.889000", "102918.891000", "102918.893000", "102918.895000", "102918.897000", "102918.899000", "102918.901000", "102918.903000", "102918.905000", "102918.915000", "102958.864000", "102958.866000", "102958.871000", "102958.873000", "102958.875000", "102958.877000", "102958.879000", "102958.880000", "102958.882000", "102958.884000", "102958.886000", "102958.888000", "102958.890000", "102958.892000", "102958.894000", "102958.896000", "102958.898000", "102958.901000", "102958.902000", "102958.904000", "103038.863000", "103038.865000", "103038.867000", "103038.869000", "103038.871000", "103038.873000", "103038.875000", "103038.877000", "103038.879000", "103038.881000", "103038.883000", "103038.885000", "103038.886000", "103038.888000", "103038.890000", "103038.892000", "103038.894000", "103038.896000", "103038.898000", "103038.900000", "103118.864000", "103118.866000", "103118.868000", "103118.870000", "103118.872000", "103118.874000", "103118.876000", "103118.878000", "103118.880000", "103118.882000", "103118.884000", "103118.886000", "103118.888000", "103118.890000", "103118.891000", "103118.893000", "103118.895000", "103118.897000", "103118.899000", "103118.901000", "103158.864000", "103158.866000", "103158.868000", "103158.870000", "103158.872000", "103158.874000", "103158.876000", "103158.878000", "103158.880000", "103158.882000", "103158.884000", "103158.886000", "103158.888000", "103158.890000", "103158.892000", "103158.894000", "103158.896000", "103158.898000", "103158.900000", "103158.901000", "103238.864000", "103238.866000", "103238.868000", "103238.870000", "103238.872000", "103238.874000", "103238.876000", "103238.878000", "103238.880000", "103238.882000", "103238.884000", "103238.886000", "103238.888000", "103238.890000", "103238.892000", "103238.893000", "103238.895000", "103238.897000", "103238.899000", "103238.901000", "103318.864000", "103318.866000", "103318.868000", "103318.870000", "103318.872000", "103318.874000", "103318.876000", "103318.878000", "103318.880000", "103318.882000", "103318.884000", "103318.886000", "103318.888000", "103318.890000", "103318.891000", "103318.893000", "103318.895000", "103318.897000", "103318.899000", "103318.901000", "103358.864000", "103358.866000", "103358.868000", "103358.870000", "103358.872000", "103358.874000", "103358.876000", "103358.878000", "103358.880000", "103358.882000", "103358.884000", "103358.886000", "103358.888000", "103358.890000", "103358.891000", "103358.893000", "103358.895000", "103358.897000", "103358.899000", "103358.901000", "103438.864000", "103438.866000", "103438.868000", "103438.870000", "103438.872000", "103438.874000", "103438.876000", "103438.878000", "103438.880000", "103438.882000", "103438.884000", "103438.886000", "103438.888000", "103438.890000", "103438.891000", "103438.893000", "103438.895000", "103438.897000", "103438.899000", "103438.901000", "103518.863000", "103518.865000", "103518.867000", "103518.869000", "103518.871000", "103518.873000", "103518.875000", "103518.877000", "103518.879000", "103518.881000", "103518.883000", "103518.885000", "103518.887000", "103518.888000", "103518.890000", "103518.892000", "103518.894000", "103518.896000", "103518.898000", "103518.900000", "103558.864000", "103558.867000", "103558.869000", "103558.871000", "103558.873000", "103558.875000", "103558.877000", "103558.879000", "103558.881000", "103558.883000", "103558.885000", "103558.887000", "103558.889000", "103558.891000", "103558.892000", "103558.894000", "103558.896000", "103558.898000", "103558.900000", "103558.902000", "103638.864000", "103638.866000", "103638.868000", "103638.870000", "103638.872000", "103638.874000", "103638.876000", "103638.878000", "103638.880000", "103638.882000", "103638.884000", "103638.886000", "103638.888000", "103638.890000", "103638.892000", "103638.894000", "103638.896000", "103638.898000", "103638.900000", "103638.901000", "103658.864000", "103658.866000", "103658.868000", "103658.870000", "103658.872000", "103658.874000", "103658.876000", "103658.878000", "103658.880000", "103658.882000", "103738.863000", "103738.865000", "103738.867000", "103738.869000", "103738.871000", "103738.873000", "103738.875000", "103738.877000", "103738.879000", "103738.881000", "103738.883000", "103738.885000", "103738.887000", "103738.889000", "103738.891000", "103738.893000", "103738.895000", "103738.897000", "103738.899000", "103738.900000", "103818.864000", "103818.866000", "103818.868000", "103818.870000", "103818.872000", "103818.874000", "103818.876000", "103818.878000", "103818.880000", "103818.882000", "103818.884000", "103818.886000", "103818.888000", "103818.890000", "103818.892000", "103818.893000", "103818.895000", "103818.897000", "103818.899000", "103818.901000", "103858.864000", "103858.866000", "103858.868000", "103858.870000", "103858.872000", "103858.874000", "103858.876000", "103858.878000", "103858.880000", "103858.882000", "103858.884000", "103858.886000", "103858.888000", "103858.890000", "103858.892000", "103858.893000", "103858.895000", "103858.897000", "103858.899000", "103858.901000", "103938.863000", "103938.866000", "103938.868000", "103938.870000", "103938.872000", "103938.873000", "103938.875000", "103938.877000", "103938.879000", "103938.881000", "103938.883000", "103938.885000", "103938.887000", "103938.889000", "103938.891000", "103938.893000", "103938.895000", "103938.897000", "103938.899000", "103938.901000", "104002.110000", "104002.112000", "104002.114000", "104002.116000", "104002.118000", "104002.120000", "104002.122000", "104002.124000", "104002.126000", "104002.128000", "104002.130000", "104002.132000"],
      "InstanceNumber": [1, 2, 3, 4, 5, 6, 7, 8, 9, 10, 11, 12, 13, 14, 15, 16, 17, 18, 19, 20, 21, 22, 23, 24, 25, 26, 27, 28, 29, 30, 31, 32, 33, 34, 35, 36, 37, 38, 39, 40, 41, 42, 43, 44, 45, 46, 47, 48, 49, 50, 51, 52, 53, 54, 55, 56, 57, 58, 59, 60, 61, 62, 63, 64, 65, 66, 67, 68, 69, 70, 71, 72, 73, 74, 75, 76, 77, 78, 79, 80, 81, 82, 83, 84, 85, 86, 87, 88, 89, 90, 91, 92, 93, 94, 95, 96, 97, 98, 99, 100, 101, 102, 103, 104, 105, 106, 107, 108, 109, 110, 111, 112, 113, 114, 115, 116, 117, 118, 119, 120, 121, 122, 123, 124, 125, 126, 127, 128, 129, 130, 131, 132, 133, 134, 135, 136, 137, 138, 139, 140, 141, 142, 143, 144, 145, 146, 147, 148, 149, 150, 151, 152, 153, 154, 155, 156, 157, 158, 159, 160, 161, 162, 163, 164, 165, 166, 167, 168, 169, 170, 171, 172, 173, 174, 175, 176, 177, 178, 179, 180, 181, 182, 183, 184, 185, 186, 187, 188, 189, 190, 191, 192, 193, 194, 195, 196, 197, 198, 199, 200, 201, 202, 203, 204, 205, 206, 207, 208, 209, 210, 211, 212, 213, 214, 215, 216, 217, 218, 219, 220, 221, 222, 223, 224, 225, 226, 227, 228, 229, 230, 231, 232, 233, 234, 235, 236, 237, 238, 239, 240, 241, 242, 243, 244, 245, 246, 247, 248, 249, 250, 251, 252, 253, 254, 255, 256, 257, 258, 259, 260, 261, 262, 263, 264, 265, 266, 267, 268, 269, 270, 271, 272, 273, 274, 275, 276, 277, 278, 279, 280, 281, 282, 283, 284, 285, 286, 287, 288, 289, 290, 291, 292, 293, 294, 295, 296, 297, 298, 299, 300, 301, 302, 303, 304, 305, 306, 307, 308, 309, 310, 311, 312, 313, 314, 315, 316, 317, 318, 319, 320, 321, 322, 323, 324, 325, 326, 327, 328, 329, 330, 331, 332, 333, 334, 335, 336, 337, 338, 339, 340, 341, 342, 343, 344, 345, 346, 347, 348, 349, 350, 351, 352, 353, 354, 355, 356, 357, 358, 359, 360, 361, 362, 363, 364],
      "LargestImagePixelValue": [3127, 3001, 2882, 2877, 2869, 2866, 2863, 2853, 2833, 2855, 2850, 2851, 2856, 2853, 2847, 2844, 2852, 2848, 2855, 2849, 2844, 2843, 2847, 2877, 2857, 2852, 2851, 2855, 2859, 2862, 2871, 2856, 2839, 2805, 2816, 2832, 2850, 2861, 2853, 2834, 2823, 2826, 2831, 2833, 2817, 2838, 2824, 2823, 2834, 2848, 2833, 2806, 2831, 2852, 2832, 2829, 2835, 2828, 2826, 2828, 2833, 2832, 2801, 2798, 2811, 2835, 2841, 2832, 2820, 2833, 2831, 2848, 2835, 2842, 2838, 2847, 2839, 2823, 2817, 2824, 2821, 2830, 2839, 2842, 2828, 2807, 2822, 2836, 2827, 2837, 2821, 2816, 2821, 2841, 2846, 2861, 2849, 2829, 2810, 2820, 2836, 2817, 2833, 2845, 2848, 2835, 2828, 2835, 2821, 2828, 2819, 2824, 2824, 2828, 2837, 2840, 2804, 2814, 2820, 2835, 2804, 2827, 2833, 2883, 2838, 2837, 2822, 2835, 2825, 2824, 2823, 2829, 2828, 2835, 2830, 2832, 2836, 2838, 2826, 2820, 2832, 2830, 2817, 2828, 2826, 2825, 2829, 2838, 2831, 2833, 2820, 2825, 2830, 2837, 2846, 2834, 2834, 2835, 2833, 2819, 2822, 2844, 2837, 2826, 2810, 2817, 2827, 2818, 2806, 2808, 2825, 2829, 2822, 2829, 2830, 2818, 2815, 2807, 2824, 2816, 2805, 2799, 2806, 2787, 2833, 2844, 2820, 2830, 2832, 2826, 2825, 2825, 2826, 2821, 2811, 2811, 2811, 2814, 2817, 2803, 2810, 2804, 2810, 2806, 2808, 2814, 2819, 2815, 2825, 2797, 2798, 2796, 2818, 2805, 2817, 2816, 2817, 2813, 2823, 2813, 2827, 2827, 2837, 2814, 2813, 2816, 2810, 2813, 2818, 2829, 2829, 2821, 2819, 2828, 2805, 2810, 2809, 2814, 2816, 2807, 2804, 2859, 2804, 2778, 2798, 2791, 2793, 2800, 2812, 2807, 2815, 2804, 2809, 2800, 2822, 2835, 2808, 2812, 2817, 2811, 2811, 2820, 2815, 2805, 2802, 2812, 2807, 2818, 2825, 2810, 2795, 2803, 2805, 2762, 2816, 2809, 2813, 2813, 2813, 2798, 2810, 2819, 2803, 2815, 2809, 2811, 2820, 2792, 2803, 2789, 2791, 2810, 2813, 2798, 2801, 2808, 2803, 2827, 2822, 2809, 2749, 2775, 2801, 2828, 2805, 2812, 2786, 2795, 2801, 2802, 2809, 2783, 2795, 2775, 2788, 2791, 2795, 2793, 2787, 2799, 2783, 2805, 2802, 2800, 2796, 2809, 2840, 2827, 2832, 2832, 2786, 2786, 2799, 2829, 2830, 2812, 2825, 2811, 2808, 2812, 2807, 2809, 2818, 2820, 2814, 2802, 2811, 2813, 2804, 2797, 2797, 2797, 2785, 2789, 2804, 2800, 2817, 2805, 2802, 2834, 2811, 2827, 2758, 2753],
