{
  "AcquisitionMatrixPE": 64,
  "AcquisitionNumber": 1,
  "AcquisitionTime": "10:41:43.835000",
  "BandwidthPerPixelPhaseEncode": 25.202,
  "BaseResolution": 64,
  "BodyPartExamined": "BRAIN",
  "ConsistencyInfo": "N4_VD13C_LATEST_20121124",
  "ConversionSoftware": "dcm2niix",
  "ConversionSoftwareVersion": "v1.0.20201102",
  "DerivedVendorReportedEchoSpacing": 0.00061999,
  "DeviceSerialNumber": "45758",
  "DwellTime": 4.3e-06,
  "EchoTime": 0.03,
  "EchoTrainLength": 64,
  "EffectiveEchoSpacing": 0.00061999,
  "FlipAngle": 90,
  "ImageOrientationPatientDICOM": [0.999544, -0.0217323, -0.0209686, 0.0191922, 0.993233, -0.11454],
  "ImageType": [
    "ORIGINAL",
    "PRIMARY",
    "M",
    "ND",
    "MOSAIC"
],
  "ImagingFrequency": 123.2,
  "InPlanePhaseEncodingDirectionDICOM": "ROW",
  "InstitutionAddress": "Street StreetNo,City /652E4B/,District,KR,ZIP",
  "InstitutionName": "DGMIF",
  "InstitutionalDepartmentName": "Department",
  "MRAcquisitionType": "2D",
  "MagneticFieldStrength": 3,
  "Manufacturer": "Siemens",
  "ManufacturersModelName": "Skyra",
  "Modality": "MR",
  "PartialFourier": 1,
  "PatientPosition": "HFS",
  "PercentPhaseFOV": 100,
  "PercentSampling": 100,
  "PhaseEncodingDirection": "i",
  "PhaseEncodingSteps": 64,
  "PhaseResolution": 1,
  "PixelBandwidth": 1815,
  "ProcedureStepDescription": "DGMIF^DGIST_Jeon",
  "ProtocolName": "EPI_DGIST_3",
  "PulseSequenceDetails": "%SiemensSeq%\\ep2d_bold",
  "ReceiveCoilActiveElements": "HC1-7",
  "ReceiveCoilName": "HeadNeck_64",
  "ReconMatrixPE": 64,
  "RepetitionTime": 2,
  "SAR": 0.1304,
  "ScanOptions": "FS",
  "ScanningSequence": "EP",
  "SequenceName": "*epfid2d1_64",
  "SequenceVariant": "SK",
  "SeriesDescription": "EPI_DGIST_3",
  "SeriesNumber": 6,
  "ShimSetting": [-9753, -13688, -8259, 217, -268, -301, -147, -149],
  "SliceThickness": 4,
  "SliceTiming": [0.9875, 0, 1.055, 0.065, 1.12, 0.13, 1.1875, 0.1975, 1.2525, 0.2625, 1.3175, 0.3275, 1.385, 0.395, 1.45, 0.46, 1.5175, 0.5275, 1.5825, 0.5925, 1.6475, 0.6575, 1.715, 0.725, 1.78, 0.79, 1.8475, 0.8575, 1.9125, 0.9225],
  "SoftwareVersions": "syngo MR D13C",
  "SpacingBetweenSlices": 4.8,
  "StationName": "AWP45758",
  "TaskName": "asrt",
  "TotalReadoutTime": 0.0390594,
  "TxRefAmp": 302.2,
  "dcmmeta_affine": [
    [-2.998631715774536, 0.05757666751742363, -0.11191626638174057, 89.7640609741211],
    [0.06519676744937897, 2.9796998500823975, -0.5476073026657104, -120.134765625],
    [-0.06290572136640549, 0.34361860156059265, 4.76734733581543, -61.54439163208008],
    [0.0, 0.0, 0.0, 1.0]
],
  "dcmmeta_reorient_transform": [
    [0.0, -1.0, 0.0, 63.0],
    [1.0, 0.0, 0.0, 0.0],
    [0.0, 0.0, 1.0, 0.0],
    [0.0, 0.0, 0.0, 1.0]
],
  "dcmmeta_shape": [64, 64, 30, 364],
  "dcmmeta_slice_dim": 2,
  "dcmmeta_version": 0.6,
  "global": {
    "const": {
      "AcquisitionMatrix": [0, 64, 64, 0],
      "AngioFlag": "N",
      "BitsAllocated": 16,
      "BitsStored": 12,
      "BodyPartExamined": "BRAIN",
      "Columns": 384,
      "EchoNumbers": 1,
      "EchoTime": 30.0,
      "EchoTrainLength": 64,
      "FlipAngle": 90.0,
      "HighBit": 11,
      "ImageOrientationPatient": [0.99954390995578, -0.0217322563989, -0.0209685741556, 0.01919222305707, 0.99323328275648, -0.1145395329085],
      "ImagePositionPatient": [-582.38473646184, -533.90681866001, 25.147472525394],
      "ImageType": [
        "ORIGINAL",
        "PRIMARY",
        "M",
        "ND",
        "MOSAIC"
],
      "ImagedNucleus": "1H",
      "ImagingFrequency": 123.200219,
      "InPlanePhaseEncodingDirection": "ROW",
      "MRAcquisitionType": "2D",
      "MagneticFieldStrength": 3.0,
      "Manufacturer": "SIEMENS",
      "ManufacturerModelName": "Skyra",
      "Modality": "MR",
      "NumberOfAverages": 1.0,
      "NumberOfPhaseEncodingSteps": 64,
      "PercentPhaseFieldOfView": 100.0,
      "PercentSampling": 100.0,
      "PerformedProcedureStepStartTime": "091819.506000",
      "PhotometricInterpretation": "MONOCHROME2",
      "PixelBandwidth": 1815.0,
      "PixelRepresentation": 0,
      "PixelSpacing": [3.0, 3.0],
      "ProtocolName": "EPI_DGIST_3",
      "RepetitionTime": 2000.0,
      "Rows": 384,
      "SAR": 0.1303997240573,
      "SamplesPerPixel": 1,
      "ScanOptions": "FS",
      "ScanningSequence": "EP",
      "SequenceName": "*epfid2d1_64",
      "SequenceVariant": "SK",
      "SeriesDescription": "EPI_DGIST_3",
      "SeriesNumber": 6,
      "SeriesTime": "104237.020000",
      "SliceLocation": -49.513098006758,
      "SliceThickness": 4.0,
      "SmallestImagePixelValue": 0,
      "SoftwareVersions": "syngo MR D13C",
      "SpacingBetweenSlices": 4.8000000251723,
      "SpecificCharacterSet": "ISO_IR 100",
      "StudyID": "1",
      "StudyTime": "091819.362000",
      "TimeOfLastCalibration": ["123723.000000", "123723.000000"],
      "TransmitCoilName": "Body",
      "VariableFlipAngleFlag": "N",
      "WindowCenterWidthExplanation": "Algo1",
      "dBdt": 0.0},
    "slices": {}
  },
  "time": {
    "samples": {
      "AcquisitionNumber": [1, 2, 3, 4, 5, 6, 7, 8, 9, 10, 11, 12, 13, 14, 15, 16, 17, 18, 19, 20, 21, 22, 23, 24, 25, 26, 27, 28, 29, 30, 31, 32, 33, 34, 35, 36, 37, 38, 39, 40, 41, 42, 43, 44, 45, 46, 47, 48, 49, 50, 51, 52, 53, 54, 55, 56, 57, 58, 59, 60, 61, 62, 63, 64, 65, 66, 67, 68, 69, 70, 71, 72, 73, 74, 75, 76, 77, 78, 79, 80, 81, 82, 83, 84, 85, 86, 87, 88, 89, 90, 91, 92, 93, 94, 95, 96, 97, 98, 99, 100, 101, 102, 103, 104, 105, 106, 107, 108, 109, 110, 111, 112, 113, 114, 115, 116, 117, 118, 119, 120, 121, 122, 123, 124, 125, 126, 127, 128, 129, 130, 131, 132, 133, 134, 135, 136, 137, 138, 139, 140, 141, 142, 143, 144, 145, 146, 147, 148, 149, 150, 151, 152, 153, 154, 155, 156, 157, 158, 159, 160, 161, 162, 163, 164, 165, 166, 167, 168, 169, 170, 171, 172, 173, 174, 175, 176, 177, 178, 179, 180, 181, 182, 183, 184, 185, 186, 187, 188, 189, 190, 191, 192, 193, 194, 195, 196, 197, 198, 199, 200, 201, 202, 203, 204, 205, 206, 207, 208, 209, 210, 211, 212, 213, 214, 215, 216, 217, 218, 219, 220, 221, 222, 223, 224, 225, 226, 227, 228, 229, 230, 231, 232, 233, 234, 235, 236, 237, 238, 239, 240, 241, 242, 243, 244, 245, 246, 247, 248, 249, 250, 251, 252, 253, 254, 255, 256, 257, 258, 259, 260, 261, 262, 263, 264, 265, 266, 267, 268, 269, 270, 271, 272, 273, 274, 275, 276, 277, 278, 279, 280, 281, 282, 283, 284, 285, 286, 287, 288, 289, 290, 291, 292, 293, 294, 295, 296, 297, 298, 299, 300, 301, 302, 303, 304, 305, 306, 307, 308, 309, 310, 311, 312, 313, 314, 315, 316, 317, 318, 319, 320, 321, 322, 323, 324, 325, 326, 327, 328, 329, 330, 331, 332, 333, 334, 335, 336, 337, 338, 339, 340, 341, 342, 343, 344, 345, 346, 347, 348, 349, 350, 351, 352, 353, 354, 355, 356, 357, 358, 359, 360, 361, 362, 363, 364],
      "AcquisitionTime": ["104143.835000", "104145.835000", "104147.835000", "104149.835000", "104151.835000", "104153.835000", "104155.835000", "104157.835000", "104159.835000", "104201.835000", "104203.835000", "104205.835000", "104207.835000", "104209.837500", "104211.837500", "104213.837500", "104215.837500", "104217.837500", "104219.837500", "104221.837500", "104223.837500", "104225.837500", "104227.837500", "104229.837500", "104231.837500", "104233.837500", "104235.837500", "104237.837500", "104239.837500", "104241.837500", "104243.837500", "104245.837500", "104247.837500", "104249.837500", "104251.837500", "104253.837500", "104255.837500", "104257.837500", "104259.837500", "104301.837500", "104303.837500", "104305.837500", "104307.837500", "104309.837500", "104311.837500", "104313.837500", "104315.837500", "104317.837500", "104319.837500", "104321.837500", "104323.837500", "104325.837500", "104327.837500", "104329.837500", "104331.837500", "104333.837500", "104335.837500", "104337.837500", "104339.837500", "104341.837500", "104343.837500", "104345.837500", "104347.837500", "104349.837500", "104351.837500", "104353.837500", "104355.837500", "104357.837500", "104359.837500", "104401.837500", "104403.837500", "104405.837500", "104407.837500", "104409.837500", "104411.837500", "104413.837500", "104415.837500", "104417.837500", "104419.837500", "104421.837500", "104423.837500", "104425.837500", "104427.837500", "104429.837500", "104431.837500", "104433.837500", "104435.837500", "104437.837500", "104439.837500", "104441.837500", "104443.837500", "104445.837500", "104447.837500", "104449.837500", "104451.837500", "104453.837500", "104455.837500", "104457.837500", "104459.837500", "104501.837500", "104503.837500", "104505.837500", "104507.837500", "104509.837500", "104511.837500", "104513.837500", "104515.837500", "104517.837500", "104519.837500", "104521.837500", "104523.837500", "104525.837500", "104527.837500", "104529.837500", "104531.837500", "104533.837500", "104535.837500", "104537.837500", "104539.837500", "104541.837500", "104543.837500", "104545.837500", "104547.837500", "104549.837500", "104551.837500", "104553.837500", "104555.837500", "104557.837500", "104559.837500", "104601.837500", "104603.837500", "104605.837500", "104607.837500", "104609.837500", "104611.837500", "104613.837500", "104615.837500", "104617.837500", "104619.837500", "104621.837500", "104623.837500", "104625.837500", "104627.837500", "104629.837500", "104631.837500", "104633.837500", "104635.837500", "104637.837500", "104639.837500", "104641.837500", "104643.837500", "104645.837500", "104647.837500", "104649.837500", "104651.837500", "104653.837500", "104655.837500", "104657.837500", "104659.837500", "104701.837500", "104703.837500", "104705.837500", "104707.837500", "104709.837500", "104711.837500", "104713.837500", "104715.837500", "104717.837500", "104719.837500", "104721.837500", "104723.837500", "104725.837500", "104727.837500", "104729.837500", "104731.837500", "104733.837500", "104735.837500", "104737.837500", "104739.837500", "104741.837500", "104743.837500", "104745.837500", "104747.837500", "104749.837500", "104751.837500", "104753.837500", "104755.837500", "104757.837500", "104759.837500", "104801.837500", "104803.837500", "104805.837500", "104807.837500", "104809.837500", "104811.837500", "104813.837500", "104815.837500", "104817.837500", "104819.837500", "104821.837500", "104823.837500", "104825.837500", "104827.837500", "104829.837500", "104831.837500", "104833.837500", "104835.837500", "104837.837500", "104839.837500", "104841.837500", "104843.837500", "104845.837500", "104847.837500", "104849.837500", "104851.837500", "104853.837500", "104855.837500", "104857.837500", "104859.837500", "104901.837500", "104903.837500", "104905.837500", "104907.837500", "104909.837500", "104911.837500", "104913.837500", "104915.837500", "104917.837500", "104919.837500", "104921.837500", "104923.837500", "104925.837500", "104927.837500", "104929.837500", "104931.837500", "104933.837500", "104935.837500", "104937.837500", "104939.837500", "104941.837500", "104943.837500", "104945.837500", "104947.837500", "104949.837500", "104951.837500", "104953.837500", "104955.837500", "104957.837500", "104959.837500", "105001.837500", "105003.837500", "105005.837500", "105007.837500", "105009.837500", "105011.837500", "105013.837500", "105015.837500", "105017.837500", "105019.837500", "105021.837500", "105023.837500", "105025.837500", "105027.837500", "105029.840000", "105031.840000", "105033.840000", "105035.840000", "105037.840000", "105039.840000", "105041.840000", "105043.840000", "105045.840000", "105047.840000", "105049.840000", "105051.840000", "105053.840000", "105055.840000", "105057.840000", "105059.840000", "105101.840000", "105103.840000", "105105.840000", "105107.840000", "105109.840000", "105111.840000", "105113.840000", "105115.840000", "105117.840000", "105119.840000", "105121.840000", "105123.840000", "105125.840000", "105127.840000", "105129.840000", "105131.840000", "105133.840000", "105135.840000", "105137.840000", "105139.840000", "105141.840000", "105143.840000", "105145.840000", "105147.840000", "105149.840000", "105151.840000", "105153.840000", "105155.840000", "105157.840000", "105159.840000", "105201.840000", "105203.840000", "105205.840000", "105207.840000", "105209.840000", "105211.840000", "105213.840000", "105215.840000", "105217.840000", "105219.840000", "105221.840000", "105223.840000", "105225.840000", "105227.840000", "105229.840000", "105231.840000", "105233.840000", "105235.840000", "105237.840000", "105239.840000", "105241.840000", "105243.840000", "105245.840000", "105247.840000", "105249.840000", "105251.840000", "105253.840000", "105255.840000", "105257.840000", "105259.840000", "105301.840000", "105303.840000", "105305.840000", "105307.840000", "105309.840000", "105311.840000", "105313.840000", "105315.840000", "105317.840000", "105319.840000", "105321.840000", "105323.840000", "105325.840000", "105327.840000", "105329.840000", "105331.840000", "105333.840000", "105335.840000", "105337.840000", "105339.840000", "105341.840000", "105343.840000", "105345.840000", "105347.840000", "105349.840000"],
      "ContentTime": ["104237.023000", "104237.026000", "104237.027000", "104237.029000", "104237.031000", "104237.033000", "104237.035000", "104237.037000", "104237.039000", "104237.041000", "104237.043000", "104237.045000", "104237.047000", "104237.049000", "104237.050000", "104237.052000", "104237.054000", "104237.056000", "104237.058000", "104237.061000", "104237.063000", "104237.065000", "104237.067000", "104237.069000", "104237.075000", "104237.077000", "104317.018000", "104317.020000", "104317.022000", "104317.024000", "104317.026000", "104317.028000", "104317.030000", "104317.032000", "104317.034000", "104317.036000", "104317.038000", "104317.040000", "104317.042000", "104317.044000", "104317.046000", "104317.047000", "104317.049000", "104317.051000", "104317.053000", "104317.055000", "104357.018000", "104357.020000", "104357.022000", "104357.024000", "104357.026000", "104357.028000", "104357.030000", "104357.032000", "104357.034000", "104357.036000", "104357.038000", "104357.039000", "104357.041000", "104357.043000", "104357.045000", "104357.047000", "104357.053000", "104357.055000", "104357.057000", "104357.059000", "104437.018000", "104437.020000", "104437.022000", "104437.024000", "104437.026000", "104437.028000", "104437.030000", "104437.032000", "104437.034000", "104437.036000", "104437.038000", "104437.040000", "104437.042000", "104437.043000", "104437.045000", "104437.047000", "104437.049000", "104437.051000", "104437.053000", "104437.055000", "104517.018000", "104517.020000", "104517.022000", "104517.024000", "104517.026000", "104517.028000", "104517.030000", "104517.032000", "104517.034000", "104517.036000", "104517.038000", "104517.040000", "104517.042000", "104517.044000", "104517.046000", "104517.048000", "104517.050000", "104517.051000", "104517.053000", "104517.055000", "104557.018000", "104557.020000", "104557.022000", "104557.024000", "104557.026000", "104557.028000", "104557.030000", "104557.032000", "104557.034000", "104557.036000", "104557.038000", "104557.040000", "104557.042000", "104557.044000", "104557.046000", "104557.048000", "104557.049000", "104557.051000", "104557.053000", "104557.055000", "104637.018000", "104637.020000", "104637.022000", "104637.038000", "104637.039000", "104637.041000", "104637.043000", "104637.045000", "104637.047000", "104637.049000", "104637.051000", "104637.053000", "104637.055000", "104637.057000", "104637.059000", "104637.062000", "104637.064000", "104637.066000", "104637.068000", "104637.070000", "104657.018000", "104657.020000", "104657.022000", "104657.024000", "104657.026000", "104657.028000", "104657.030000", "104657.032000", "104657.034000", "104657.036000", "104737.018000", "104737.020000", "104737.022000", "104737.024000", "104737.026000", "104737.028000", "104737.030000", "104737.032000", "104737.034000", "104737.036000", "104737.038000", "104737.040000", "104737.042000", "104737.044000", "104737.046000", "104737.048000", "104737.049000", "104737.051000", "104737.053000", "104737.055000", "104817.018000", "104817.020000", "104817.022000", "104817.024000", "104817.026000", "104817.028000", "104817.030000", "104817.032000", "104817.034000", "104817.036000", "104817.038000", "104817.040000", "104817.049000", "104817.051000", "104817.053000", "104817.055000", "104817.057000", "104817.059000", "104817.061000", "104817.063000", "104857.018000", "104857.020000", "104857.022000", "104857.024000", "104857.026000", "104857.028000", "104857.030000", "104857.032000", "104857.034000", "104857.036000", "104857.038000", "104857.040000", "104857.042000", "104857.044000", "104857.046000", "104857.048000", "104857.050000", "104857.052000", "104857.054000", "104857.056000", "104937.018000", "104937.020000", "104937.022000", "104937.024000", "104937.026000", "104937.028000", "104937.030000", "104937.032000", "104937.034000", "104937.036000", "104937.038000", "104937.040000", "104937.042000", "104937.044000", "104937.045000", "104937.047000", "104937.049000", "104937.051000", "104937.053000", "104937.055000", "105017.018000", "105017.020000", "105017.022000", "105017.024000", "105017.026000", "105017.028000", "105017.030000", "105017.032000", "105017.034000", "105017.036000", "105017.038000", "105017.040000", "105017.042000", "105017.044000", "105017.046000", "105017.048000", "105017.050000", "105017.052000", "105017.054000", "105017.056000", "105057.018000", "105057.020000", "105057.022000", "105057.024000", "105057.026000", "105057.028000", "105057.030000", "105057.032000", "105057.034000", "105057.036000", "105057.038000", "105057.040000", "105057.042000", "105057.044000", "105057.046000", "105057.048000", "105057.050000", "105057.051000", "105057.053000", "105057.055000", "105137.018000", "105137.020000", "105137.022000", "105137.024000", "105137.026000", "105137.028000", "105137.030000", "105137.032000", "105137.034000", "105137.036000", "105137.038000", "105137.040000", "105137.042000", "105137.044000", "105137.046000", "105137.048000", "105137.050000", "105137.052000", "105137.063000", "105137.065000", "105217.018000", "105217.021000", "105217.022000", "105217.024000", "105217.026000", "105217.028000", "105217.030000", "105217.032000", "105217.034000", "105217.036000", "105217.038000", "105217.040000", "105217.042000", "105217.044000", "105217.046000", "105217.048000", "105217.050000", "105217.052000", "105217.054000", "105217.056000", "105257.018000", "105257.020000", "105257.023000", "105257.025000", "105257.027000", "105257.028000", "105257.031000", "105257.032000", "105257.034000", "105257.036000", "105257.038000", "105257.040000", "105257.042000", "105257.044000", "105257.046000", "105257.048000", "105257.050000", "105257.052000", "105257.054000", "105257.056000", "105337.018000", "105337.020000", "105337.023000", "105337.025000", "105337.027000", "105337.029000", "105337.031000", "105337.033000", "105337.035000", "105337.037000", "105337.039000", "105337.041000", "105337.043000", "105337.044000", "105337.046000", "105337.048000", "105337.050000", "105337.052000", "105337.054000", "105337.056000", "105351.096000", "105351.098000", "105351.100000", "105351.102000", "105351.104000", "105351.106000", "105351.108000", "105351.110000"],
      "InstanceCreationTime": ["104237.023000", "104237.026000", "104237.027000", "104237.029000", "104237.031000", "104237.033000", "104237.035000", "104237.037000", "104237.039000", "104237.041000", "104237.043000", "104237.045000", "104237.047000", "104237.049000", "104237.050000", "104237.052000", "104237.054000", "104237.056000", "104237.058000", "104237.061000", "104237.063000", "104237.065000", "104237.067000", "104237.069000", "104237.075000", "104237.077000", "104317.018000", "104317.020000", "104317.022000", "104317.024000", "104317.026000", "104317.028000", "104317.030000", "104317.032000", "104317.034000", "104317.036000", "104317.038000", "104317.040000", "104317.042000", "104317.044000", "104317.046000", "104317.047000", "104317.049000", "104317.051000", "104317.053000", "104317.055000", "104357.018000", "104357.020000", "104357.022000", "104357.024000", "104357.026000", "104357.028000", "104357.030000", "104357.032000", "104357.034000", "104357.036000", "104357.038000", "104357.039000", "104357.041000", "104357.043000", "104357.045000", "104357.047000", "104357.053000", "104357.055000", "104357.057000", "104357.059000", "104437.018000", "104437.020000", "104437.022000", "104437.024000", "104437.026000", "104437.028000", "104437.030000", "104437.032000", "104437.034000", "104437.036000", "104437.038000", "104437.040000", "104437.042000", "104437.043000", "104437.045000", "104437.047000", "104437.049000", "104437.051000", "104437.053000", "104437.055000", "104517.018000", "104517.020000", "104517.022000", "104517.024000", "104517.026000", "104517.028000", "104517.030000", "104517.032000", "104517.034000", "104517.036000", "104517.038000", "104517.040000", "104517.042000", "104517.044000", "104517.046000", "104517.048000", "104517.050000", "104517.051000", "104517.053000", "104517.055000", "104557.018000", "104557.020000", "104557.022000", "104557.024000", "104557.026000", "104557.028000", "104557.030000", "104557.032000", "104557.034000", "104557.036000", "104557.038000", "104557.040000", "104557.042000", "104557.044000", "104557.046000", "104557.048000", "104557.049000", "104557.051000", "104557.053000", "104557.055000", "104637.018000", "104637.020000", "104637.022000", "104637.038000", "104637.039000", "104637.041000", "104637.043000", "104637.045000", "104637.047000", "104637.049000", "104637.051000", "104637.053000", "104637.055000", "104637.057000", "104637.059000", "104637.062000", "104637.064000", "104637.066000", "104637.068000", "104637.070000", "104657.018000", "104657.020000", "104657.022000", "104657.024000", "104657.026000", "104657.028000", "104657.030000", "104657.032000", "104657.034000", "104657.036000", "104737.018000", "104737.020000", "104737.022000", "104737.024000", "104737.026000", "104737.028000", "104737.030000", "104737.032000", "104737.034000", "104737.036000", "104737.038000", "104737.040000", "104737.042000", "104737.044000", "104737.046000", "104737.048000", "104737.049000", "104737.051000", "104737.053000", "104737.055000", "104817.018000", "104817.020000", "104817.022000", "104817.024000", "104817.026000", "104817.028000", "104817.030000", "104817.032000", "104817.034000", "104817.036000", "104817.038000", "104817.040000", "104817.049000", "104817.051000", "104817.053000", "104817.055000", "104817.057000", "104817.059000", "104817.061000", "104817.063000", "104857.018000", "104857.020000", "104857.022000", "104857.024000", "104857.026000", "104857.028000", "104857.030000", "104857.032000", "104857.034000", "104857.036000", "104857.038000", "104857.040000", "104857.042000", "104857.044000", "104857.046000", "104857.048000", "104857.050000", "104857.052000", "104857.054000", "104857.056000", "104937.018000", "104937.020000", "104937.022000", "104937.024000", "104937.026000", "104937.028000", "104937.030000", "104937.032000", "104937.034000", "104937.036000", "104937.038000", "104937.040000", "104937.042000", "104937.044000", "104937.045000", "104937.047000", "104937.049000", "104937.051000", "104937.053000", "104937.055000", "105017.018000", "105017.020000", "105017.022000", "105017.024000", "105017.026000", "105017.028000", "105017.030000", "105017.032000", "105017.034000", "105017.036000", "105017.038000", "105017.040000", "105017.042000", "105017.044000", "105017.046000", "105017.048000", "105017.050000", "105017.052000", "105017.054000", "105017.056000", "105057.018000", "105057.020000", "105057.022000", "105057.024000", "105057.026000", "105057.028000", "105057.030000", "105057.032000", "105057.034000", "105057.036000", "105057.038000", "105057.040000", "105057.042000", "105057.044000", "105057.046000", "105057.048000", "105057.050000", "105057.051000", "105057.053000", "105057.055000", "105137.018000", "105137.020000", "105137.022000", "105137.024000", "105137.026000", "105137.028000", "105137.030000", "105137.032000", "105137.034000", "105137.036000", "105137.038000", "105137.040000", "105137.042000", "105137.044000", "105137.046000", "105137.048000", "105137.050000", "105137.052000", "105137.063000", "105137.065000", "105217.018000", "105217.021000", "105217.022000", "105217.024000", "105217.026000", "105217.028000", "105217.030000", "105217.032000", "105217.034000", "105217.036000", "105217.038000", "105217.040000", "105217.042000", "105217.044000", "105217.046000", "105217.048000", "105217.050000", "105217.052000", "105217.054000", "105217.056000", "105257.018000", "105257.020000", "105257.023000", "105257.025000", "105257.027000", "105257.028000", "105257.031000", "105257.032000", "105257.034000", "105257.036000", "105257.038000", "105257.040000", "105257.042000", "105257.044000", "105257.046000", "105257.048000", "105257.050000", "105257.052000", "105257.054000", "105257.056000", "105337.018000", "105337.020000", "105337.023000", "105337.025000", "105337.027000", "105337.029000", "105337.031000", "105337.033000", "105337.035000", "105337.037000", "105337.039000", "105337.041000", "105337.043000", "105337.044000", "105337.046000", "105337.048000", "105337.050000", "105337.052000", "105337.054000", "105337.056000", "105351.096000", "105351.098000", "105351.100000", "105351.102000", "105351.104000", "105351.106000", "105351.108000", "105351.110000"],
      "InstanceNumber": [1, 2, 3, 4, 5, 6, 7, 8, 9, 10, 11, 12, 13, 14, 15, 16, 17, 18, 19, 20, 21, 22, 23, 24, 25, 26, 27, 28, 29, 30, 31, 32, 33, 34, 35, 36, 37, 38, 39, 40, 41, 42, 43, 44, 45, 46, 47, 48, 49, 50, 51, 52, 53, 54, 55, 56, 57, 58, 59, 60, 61, 62, 63, 64, 65, 66, 67, 68, 69, 70, 71, 72, 73, 74, 75, 76, 77, 78, 79, 80, 81, 82, 83, 84, 85, 86, 87, 88, 89, 90, 91, 92, 93, 94, 95, 96, 97, 98, 99, 100, 101, 102, 103, 104, 105, 106, 107, 108, 109, 110, 111, 112, 113, 114, 115, 116, 117, 118, 119, 120, 121, 122, 123, 124, 125, 126, 127, 128, 129, 130, 131, 132, 133, 134, 135, 136, 137, 138, 139, 140, 141, 142, 143, 144, 145, 146, 147, 148, 149, 150, 151, 152, 153, 154, 155, 156, 157, 158, 159, 160, 161, 162, 163, 164, 165, 166, 167, 168, 169, 170, 171, 172, 173, 174, 175, 176, 177, 178, 179, 180, 181, 182, 183, 184, 185, 186, 187, 188, 189, 190, 191, 192, 193, 194, 195, 196, 197, 198, 199, 200, 201, 202, 203, 204, 205, 206, 207, 208, 209, 210, 211, 212, 213, 214, 215, 216, 217, 218, 219, 220, 221, 222, 223, 224, 225, 226, 227, 228, 229, 230, 231, 232, 233, 234, 235, 236, 237, 238, 239, 240, 241, 242, 243, 244, 245, 246, 247, 248, 249, 250, 251, 252, 253, 254, 255, 256, 257, 258, 259, 260, 261, 262, 263, 264, 265, 266, 267, 268, 269, 270, 271, 272, 273, 274, 275, 276, 277, 278, 279, 280, 281, 282, 283, 284, 285, 286, 287, 288, 289, 290, 291, 292, 293, 294, 295, 296, 297, 298, 299, 300, 301, 302, 303, 304, 305, 306, 307, 308, 309, 310, 311, 312, 313, 314, 315, 316, 317, 318, 319, 320, 321, 322, 323, 324, 325, 326, 327, 328, 329, 330, 331, 332, 333, 334, 335, 336, 337, 338, 339, 340, 341, 342, 343, 344, 345, 346, 347, 348, 349, 350, 351, 352, 353, 354, 355, 356, 357, 358, 359, 360, 361, 362, 363, 364],
      "LargestImagePixelValue": [3175, 2882, 2796, 2790, 2793, 2812, 2766, 2809, 2790, 2791, 2812, 2832, 2817, 2826, 2820, 2809, 2788, 2801, 2811, 2807, 2801, 2796, 2801, 2813, 2824, 2825, 2817, 2818, 2809, 2800, 2819, 2806, 2826, 2751, 2778, 2824, 2818, 2831, 2845, 2903, 2840, 2854, 2843, 2824, 2823, 2816, 2803, 2804, 2804, 2763, 2759, 2768, 2775, 2778, 2789, 2791, 2781, 2772, 2776, 2781, 2776, 2779, 2785, 2802, 2803, 2802, 2811, 2809, 2829, 2831, 2824, 2831, 2829, 2827, 2832, 2838, 2825, 2791, 2798, 2797, 2773, 2812, 2818, 2809, 2806, 2803, 2810, 2812, 2821, 2818, 2776, 2903, 3002, 2811, 2784, 2797, 2801, 2807, 2834, 2824, 2831, 2839, 2840, 2852, 2847, 2856, 2849, 2853, 2849, 2843, 2843, 2852, 2843, 2843, 2855, 2852, 2846, 2858, 2853, 2847, 2870, 2828, 2830, 2820, 2820, 2819, 2849, 2829, 2840, 2850, 2861, 2858, 2853, 2850, 2844, 2849, 2858, 2850, 2844, 2852, 2828, 2861, 2857, 2824, 2826, 2853, 2841, 2828, 2822, 2848, 2812, 2893, 2897, 2821, 2840, 2832, 2803, 2806, 2818, 2814, 2791, 2813, 2812, 2793, 2810, 2817, 2813, 2813, 2821, 2819, 2820, 2830, 2841, 2836, 2822, 2841, 2846, 2825, 2825, 2838, 2812, 2810, 2819, 2809, 2813, 2823, 2803, 2820, 2837, 2821, 2823, 2841, 2835, 2825, 2834, 2834, 2822, 2825, 2820, 2818, 2819, 2825, 2833, 2831, 2817, 2826, 2836, 2819, 2823, 2838, 2811, 3034, 2743, 2765, 2766, 2748, 2747, 2732, 2753, 2770, 2766, 2766, 2755, 2757, 2767, 2784, 2761, 2765, 2763, 2762, 2743, 2751, 2754, 2765, 2759, 2756, 2761, 2763, 2758, 2760, 2757, 2754, 2769, 2757, 2766, 2771, 2748, 2754, 2748, 2759, 2759, 2745, 2745, 2746, 2743, 2750, 2748, 2751, 2752, 2748, 2769, 2769, 2762, 2765, 2771, 2755, 2767, 2770, 2765, 2766, 2761, 2753, 2728, 2756, 2748, 2730, 2717, 2720, 2716, 2711, 2721, 2716, 2716, 2717, 2723, 2722, 2728, 2713, 2706, 2706, 2714, 2711, 2704, 2718, 2734, 2730, 2727, 2733, 2722, 2732, 2730, 2712, 2746, 2729, 2714, 2721, 2717, 2715, 2728, 2724, 2717, 2725, 2727, 2728, 2734, 2727, 2720, 2718, 2719, 2725, 2732, 2729, 2717, 2724, 2721, 2723, 2719, 2741, 2749, 2726, 2738, 2735, 2729, 2715, 2714, 2729, 2724, 2727, 2724, 2728, 2736, 2719, 2724, 2732, 2724, 2718, 2731, 2732, 2736, 2728, 2732, 2737, 2744, 2753, 2743, 2738, 2743, 2744, 2730, 2731, 2754, 2745, 2748, 2744],
