{
  "AcquisitionMatrixPE": 64,
  "AcquisitionNumber": 1,
  "AcquisitionTime": "11:29:54.462500",
  "BandwidthPerPixelPhaseEncode": 25.202,
  "BaseResolution": 64,
  "BodyPartExamined": "BRAIN",
  "ConsistencyInfo": "N4_VE11C_LATEST_20160120",
  "ConversionSoftware": "dcm2niix",
  "ConversionSoftwareVersion": "v1.0.20201102",
  "DerivedVendorReportedEchoSpacing": 0.00061999,
  "DeviceSerialNumber": "45758",
  "DwellTime": 4.3e-06,
  "EchoTime": 0.03,
  "EchoTrainLength": 64,
  "EffectiveEchoSpacing": 0.00061999,
  "FlipAngle": 90,
  "ImageOrientationPatientDICOM": [0.999751, 0.00900232, 0.0204125, -0.00697969, 0.995252, -0.0970786],
  "ImageType": [
    "ORIGINAL",
    "PRIMARY",
    "M",
    "ND",
    "MOSAIC"
],
  "ImagingFrequency": 123.2,
  "InPlanePhaseEncodingDirectionDICOM": "ROW",
  "InstitutionAddress": "Street StreetNo,City /652E4B/,District,KR,ZIP",
  "InstitutionName": "DGMIF",
  "InstitutionalDepartmentName": "Department",
  "MRAcquisitionType": "2D",
  "MagneticFieldStrength": 3,
  "Manufacturer": "Siemens",
  "ManufacturersModelName": "Skyra",
  "Modality": "MR",
  "PartialFourier": 1,
  "PatientPosition": "HFS",
  "PercentPhaseFOV": 100,
  "PercentSampling": 100,
  "PhaseEncodingDirection": "i",
  "PhaseEncodingSteps": 64,
  "PhaseResolution": 1,
  "PixelBandwidth": 1815,
  "ProcedureStepDescription": "DGMIF^DGIST",
  "ProtocolName": "EPI_DGIST_3",
  "PulseSequenceDetails": "%SiemensSeq%\\ep2d_bold",
  "ReceiveCoilActiveElements": "HC1-7",
  "ReceiveCoilName": "HeadNeck_64",
  "ReconMatrixPE": 64,
  "RepetitionTime": 2,
  "SAR": 0.121835,
  "ScanOptions": "FS",
  "ScanningSequence": "EP",
  "SequenceName": "*epfid2d1_64",
  "SequenceVariant": "SK",
  "SeriesDescription": "EPI_DGIST_3",
  "SeriesNumber": 4,
  "ShimSetting": [-9749, -13570, -8271, 280, -727, -590, -508, -116],
  "SliceThickness": 4,
  "SliceTiming": [0.99, 0, 1.055, 0.065, 1.1225, 0.1325, 1.1875, 0.1975, 1.2525, 0.265, 1.32, 0.33, 1.385, 0.395, 1.4525, 0.4625, 1.5175, 0.5275, 1.5825, 0.595, 1.65, 0.66, 1.715, 0.725, 1.7825, 0.7925, 1.8475, 0.8575, 1.9125, 0.925],
  "SoftwareVersions": "syngo MR E11",
  "SpacingBetweenSlices": 4.8,
  "StationName": "AWP45758",
  "TaskName": "asrt",
  "TotalReadoutTime": 0.0390594,
  "TxRefAmp": 332.13,
  "dcmmeta_affine": [
    [-2.999253273010254, -0.02093907818198204, 0.10170989483594894, 94.77017211914062],
    [-0.027006953954696655, 2.9857566356658936, -0.46517759561538696, -112.11984252929688],
    [0.061237625777721405, 0.29123589396476746, 4.776323318481445, -99.68211364746094],
    [0.0, 0.0, 0.0, 1.0]
],
  "dcmmeta_reorient_transform": [
    [0.0, -1.0, 0.0, 63.0],
    [1.0, 0.0, 0.0, 0.0],
    [0.0, 0.0, 1.0, 0.0],
    [0.0, 0.0, 0.0, 1.0]
],
  "dcmmeta_shape": [64, 64, 30, 364],
  "dcmmeta_slice_dim": 2,
  "dcmmeta_version": 0.6,
  "global": {
    "const": {
      "AcquisitionMatrix": [0, 64, 64, 0],
      "AngioFlag": "N",
      "BitsAllocated": 16,
      "BitsStored": 12,
      "BodyPartExamined": "BRAIN",
      "Columns": 384,
      "EchoNumbers": 1,
      "EchoTime": 30.0,
      "EchoTrainLength": 64,
      "FlipAngle": 90.0,
      "HighBit": 11,
      "ImageOrientationPatient": [0.99975111222947, 0.00900231791916, 0.02041254192938, -0.0069796926009, 0.9952522409615, -0.0970786318008],
      "ImagePositionPatient": [-569.98129191059, -558.02501632664, -44.534530842461],
      "ImageType": [
        "ORIGINAL",
        "PRIMARY",
        "M",
        "ND",
        "MOSAIC"
],
      "ImagedNucleus": "1H",
      "ImagingFrequency": 123.200219,
      "InPlanePhaseEncodingDirection": "ROW",
      "MRAcquisitionType": "2D",
      "MagneticFieldStrength": 3.0,
      "Manufacturer": "SIEMENS",
      "ManufacturerModelName": "Skyra",
      "Modality": "MR",
      "NumberOfAverages": 1.0,
      "NumberOfPhaseEncodingSteps": 64,
      "PercentPhaseFieldOfView": 100.0,
      "PercentSampling": 100.0,
      "PerformedProcedureStepStartTime": "105326.134000",
      "PhotometricInterpretation": "MONOCHROME2",
      "PixelBandwidth": 1815.0,
      "PixelRepresentation": 0,
      "PixelSpacing": [3.0, 3.0],
      "ProtocolName": "EPI_DGIST_3",
      "RepetitionTime": 2000.0,
      "Rows": 384,
      "SAR": 0.1218353553708,
      "SamplesPerPixel": 1,
      "ScanOptions": "FS",
      "ScanningSequence": "EP",
      "SequenceName": "*epfid2d1_64",
      "SequenceVariant": "SK",
      "SeriesDescription": "EPI_DGIST_3",
      "SeriesNumber": 4,
      "SeriesTime": "113050.282000",
      "SliceLocation": -86.316523782952,
      "SliceThickness": 4.0,
      "SmallestImagePixelValue": 0,
      "SoftwareVersions": "syngo MR E11",
      "SpacingBetweenSlices": 4.8000000181547,
      "SpecificCharacterSet": "ISO_IR 100",
      "StudyID": "1",
      "StudyTime": "105326.076000",
      "TransmitCoilName": "Body",
      "VariableFlipAngleFlag": "N",
      "WindowCenterWidthExplanation": "Algo1",
      "dBdt": 0.0},
    "slices": {}
  },
  "time": {
    "samples": {
      "AcquisitionNumber": [1, 2, 3, 4, 5, 6, 7, 8, 9, 10, 11, 12, 13, 14, 15, 16, 17, 18, 19, 20, 21, 22, 23, 24, 25, 26, 27, 28, 29, 30, 31, 32, 33, 34, 35, 36, 37, 38, 39, 40, 41, 42, 43, 44, 45, 46, 47, 48, 49, 50, 51, 52, 53, 54, 55, 56, 57, 58, 59, 60, 61, 62, 63, 64, 65, 66, 67, 68, 69, 70, 71, 72, 73, 74, 75, 76, 77, 78, 79, 80, 81, 82, 83, 84, 85, 86, 87, 88, 89, 90, 91, 92, 93, 94, 95, 96, 97, 98, 99, 100, 101, 102, 103, 104, 105, 106, 107, 108, 109, 110, 111, 112, 113, 114, 115, 116, 117, 118, 119, 120, 121, 122, 123, 124, 125, 126, 127, 128, 129, 130, 131, 132, 133, 134, 135, 136, 137, 138, 139, 140, 141, 142, 143, 144, 145, 146, 147, 148, 149, 150, 151, 152, 153, 154, 155, 156, 157, 158, 159, 160, 161, 162, 163, 164, 165, 166, 167, 168, 169, 170, 171, 172, 173, 174, 175, 176, 177, 178, 179, 180, 181, 182, 183, 184, 185, 186, 187, 188, 189, 190, 191, 192, 193, 194, 195, 196, 197, 198, 199, 200, 201, 202, 203, 204, 205, 206, 207, 208, 209, 210, 211, 212, 213, 214, 215, 216, 217, 218, 219, 220, 221, 222, 223, 224, 225, 226, 227, 228, 229, 230, 231, 232, 233, 234, 235, 236, 237, 238, 239, 240, 241, 242, 243, 244, 245, 246, 247, 248, 249, 250, 251, 252, 253, 254, 255, 256, 257, 258, 259, 260, 261, 262, 263, 264, 265, 266, 267, 268, 269, 270, 271, 272, 273, 274, 275, 276, 277, 278, 279, 280, 281, 282, 283, 284, 285, 286, 287, 288, 289, 290, 291, 292, 293, 294, 295, 296, 297, 298, 299, 300, 301, 302, 303, 304, 305, 306, 307, 308, 309, 310, 311, 312, 313, 314, 315, 316, 317, 318, 319, 320, 321, 322, 323, 324, 325, 326, 327, 328, 329, 330, 331, 332, 333, 334, 335, 336, 337, 338, 339, 340, 341, 342, 343, 344, 345, 346, 347, 348, 349, 350, 351, 352, 353, 354, 355, 356, 357, 358, 359, 360, 361, 362, 363, 364],
      "AcquisitionTime": ["112954.462500", "112956.462500", "112958.462500", "113000.462500", "113002.462500", "113004.462500", "113006.462500", "113008.462500", "113010.462500", "113012.462500", "113014.462500", "113016.462500", "113018.462500", "113020.462500", "113022.462500", "113024.462500", "113026.462500", "113028.462500", "113030.462500", "113032.462500", "113034.462500", "113036.462500", "113038.462500", "113040.462500", "113042.462500", "113044.462500", "113046.462500", "113048.462500", "113050.462500", "113052.462500", "113054.462500", "113056.462500", "113058.462500", "113100.462500", "113102.462500", "113104.462500", "113106.462500", "113108.462500", "113110.462500", "113112.462500", "113114.462500", "113116.462500", "113118.462500", "113120.462500", "113122.462500", "113124.462500", "113126.462500", "113128.462500", "113130.462500", "113132.462500", "113134.462500", "113136.462500", "113138.462500", "113140.462500", "113142.462500", "113144.462500", "113146.462500", "113148.462500", "113150.462500", "113152.462500", "113154.462500", "113156.462500", "113158.462500", "113200.462500", "113202.462500", "113204.462500", "113206.462500", "113208.462500", "113210.462500", "113212.462500", "113214.462500", "113216.462500", "113218.462500", "113220.462500", "113222.462500", "113224.462500", "113226.462500", "113228.462500", "113230.462500", "113232.462500", "113234.462500", "113236.462500", "113238.462500", "113240.462500", "113242.462500", "113244.462500", "113246.462500", "113248.462500", "113250.462500", "113252.462500", "113254.462500", "113256.462500", "113258.462500", "113300.462500", "113302.462500", "113304.462500", "113306.462500", "113308.462500", "113310.462500", "113312.462500", "113314.462500", "113316.462500", "113318.462500", "113320.462500", "113322.462500", "113324.462500", "113326.462500", "113328.462500", "113330.462500", "113332.462500", "113334.462500", "113336.462500", "113338.462500", "113340.462500", "113342.462500", "113344.462500", "113346.462500", "113348.462500", "113350.462500", "113352.462500", "113354.462500", "113356.462500", "113358.462500", "113400.462500", "113402.462500", "113404.462500", "113406.462500", "113408.462500", "113410.462500", "113412.462500", "113414.462500", "113416.462500", "113418.462500", "113420.462500", "113422.462500", "113424.462500", "113426.462500", "113428.462500", "113430.462500", "113432.462500", "113434.462500", "113436.462500", "113438.462500", "113440.462500", "113442.462500", "113444.462500", "113446.462500", "113448.462500", "113450.462500", "113452.462500", "113454.462500", "113456.462500", "113458.462500", "113500.462500", "113502.462500", "113504.462500", "113506.462500", "113508.462500", "113510.462500", "113512.462500", "113514.462500", "113516.462500", "113518.462500", "113520.462500", "113522.462500", "113524.462500", "113526.462500", "113528.462500", "113530.462500", "113532.462500", "113534.462500", "113536.462500", "113538.462500", "113540.462500", "113542.462500", "113544.462500", "113546.462500", "113548.462500", "113550.462500", "113552.462500", "113554.462500", "113556.462500", "113558.462500", "113600.462500", "113602.462500", "113604.462500", "113606.462500", "113608.462500", "113610.462500", "113612.462500", "113614.462500", "113616.462500", "113618.462500", "113620.462500", "113622.462500", "113624.462500", "113626.462500", "113628.462500", "113630.462500", "113632.462500", "113634.462500", "113636.462500", "113638.462500", "113640.462500", "113642.462500", "113644.462500", "113646.462500", "113648.462500", "113650.462500", "113652.462500", "113654.462500", "113656.462500", "113658.462500", "113700.462500", "113702.462500", "113704.462500", "113706.462500", "113708.462500", "113710.462500", "113712.462500", "113714.462500", "113716.462500", "113718.462500", "113720.462500", "113722.462500", "113724.462500", "113726.462500", "113728.462500", "113730.462500", "113732.462500", "113734.462500", "113736.462500", "113738.462500", "113740.462500", "113742.462500", "113744.462500", "113746.462500", "113748.462500", "113750.462500", "113752.462500", "113754.462500", "113756.462500", "113758.462500", "113800.462500", "113802.462500", "113804.462500", "113806.462500", "113808.462500", "113810.462500", "113812.462500", "113814.462500", "113816.462500", "113818.462500", "113820.462500", "113822.462500", "113824.462500", "113826.462500", "113828.462500", "113830.462500", "113832.462500", "113834.462500", "113836.462500", "113838.462500", "113840.462500", "113842.462500", "113844.462500", "113846.462500", "113848.462500", "113850.462500", "113852.462500", "113854.462500", "113856.462500", "113858.462500", "113900.462500", "113902.462500", "113904.462500", "113906.462500", "113908.462500", "113910.462500", "113912.462500", "113914.462500", "113916.462500", "113918.462500", "113920.462500", "113922.462500", "113924.462500", "113926.462500", "113928.462500", "113930.462500", "113932.462500", "113934.462500", "113936.462500", "113938.462500", "113940.462500", "113942.462500", "113944.462500", "113946.462500", "113948.462500", "113950.462500", "113952.462500", "113954.462500", "113956.462500", "113958.462500", "114000.462500", "114002.462500", "114004.462500", "114006.462500", "114008.462500", "114010.462500", "114012.462500", "114014.462500", "114016.462500", "114018.462500", "114020.462500", "114022.462500", "114024.462500", "114026.462500", "114028.462500", "114030.462500", "114032.462500", "114034.462500", "114036.462500", "114038.462500", "114040.462500", "114042.462500", "114044.462500", "114046.462500", "114048.462500", "114050.462500", "114052.462500", "114054.462500", "114056.462500", "114058.462500", "114100.462500", "114102.462500", "114104.462500", "114106.462500", "114108.462500", "114110.462500", "114112.462500", "114114.462500", "114116.462500", "114118.462500", "114120.462500", "114122.462500", "114124.462500", "114126.462500", "114128.462500", "114130.462500", "114132.462500", "114134.462500", "114136.462500", "114138.462500", "114140.462500", "114142.462500", "114144.462500", "114146.462500", "114148.462500", "114150.462500", "114152.462500", "114154.462500", "114156.462500", "114158.462500", "114200.462500"],
      "ContentTime": ["113050.285000", "113050.295000", "113050.297000", "113050.300000", "113050.302000", "113050.305000", "113050.307000", "113050.310000", "113050.312000", "113050.314000", "113050.317000", "113050.319000", "113050.322000", "113050.324000", "113050.327000", "113050.329000", "113050.332000", "113050.334000", "113050.337000", "113050.339000", "113050.342000", "113050.344000", "113050.347000", "113050.349000", "113050.351000", "113050.354000", "113050.356000", "113050.359000", "113130.280000", "113130.283000", "113130.286000", "113130.288000", "113130.302000", "113130.305000", "113130.307000", "113130.310000", "113130.312000", "113130.315000", "113130.317000", "113130.319000", "113130.322000", "113130.324000", "113130.327000", "113130.329000", "113130.332000", "113130.334000", "113130.337000", "113130.339000", "113210.281000", "113210.283000", "113210.286000", "113210.288000", "113210.291000", "113210.293000", "113210.296000", "113210.298000", "113210.301000", "113210.303000", "113210.305000", "113210.308000", "113210.310000", "113210.313000", "113210.315000", "113210.318000", "113210.320000", "113210.323000", "113210.325000", "113210.333000", "113250.279000", "113250.282000", "113250.284000", "113250.287000", "113250.289000", "113250.292000", "113250.294000", "113250.297000", "113250.299000", "113250.302000", "113250.304000", "113250.307000", "113250.309000", "113250.311000", "113250.314000", "113250.316000", "113250.319000", "113250.321000", "113250.324000", "113250.326000", "113330.280000", "113330.283000", "113330.286000", "113330.288000", "113330.290000", "113330.293000", "113330.295000", "113330.298000", "113330.300000", "113330.303000", "113330.305000", "113330.308000", "113330.310000", "113330.312000", "113330.315000", "113330.317000", "113330.320000", "113330.322000", "113330.325000", "113330.327000", "113410.280000", "113410.283000", "113410.286000", "113410.288000", "113410.291000", "113410.293000", "113410.295000", "113410.298000", "113410.300000", "113410.303000", "113410.305000", "113410.308000", "113410.310000", "113410.313000", "113410.324000", "113410.326000", "113410.329000", "113410.331000", "113410.334000", "113410.336000", "113450.279000", "113450.282000", "113450.285000", "113450.287000", "113450.290000", "113450.292000", "113450.294000", "113450.297000", "113450.299000", "113450.302000", "113450.304000", "113450.307000", "113450.309000", "113450.312000", "113450.314000", "113450.316000", "113450.319000", "113450.321000", "113450.324000", "113450.326000", "113530.280000", "113530.283000", "113530.286000", "113530.288000", "113530.291000", "113530.293000", "113530.295000", "113530.298000", "113530.300000", "113530.303000", "113530.305000", "113530.308000", "113530.310000", "113530.313000", "113530.315000", "113530.318000", "113530.320000", "113530.323000", "113530.325000", "113530.328000", "113610.280000", "113610.283000", "113610.286000", "113610.288000", "113610.290000", "113610.293000", "113610.295000", "113610.298000", "113610.300000", "113610.303000", "113610.305000", "113610.308000", "113610.310000", "113610.312000", "113610.315000", "113610.317000", "113610.320000", "113610.322000", "113610.325000", "113610.327000", "113650.280000", "113650.283000", "113650.286000", "113650.299000", "113650.301000", "113650.304000", "113650.306000", "113650.309000", "113650.311000", "113650.314000", "113650.316000", "113650.318000", "113650.321000", "113650.323000", "113650.326000", "113650.328000", "113650.331000", "113650.333000", "113650.336000", "113650.338000", "113730.280000", "113730.282000", "113730.285000", "113730.287000", "113730.290000", "113730.292000", "113730.294000", "113730.297000", "113730.299000", "113730.302000", "113730.304000", "113730.307000", "113730.309000", "113730.312000", "113730.322000", "113730.324000", "113730.327000", "113730.329000", "113730.332000", "113730.334000", "113810.280000", "113810.283000", "113810.286000", "113810.288000", "113810.291000", "113810.293000", "113810.295000", "113810.298000", "113810.300000", "113810.303000", "113810.305000", "113810.308000", "113810.310000", "113810.313000", "113810.315000", "113810.318000", "113810.320000", "113810.322000", "113810.325000", "113810.327000", "113850.280000", "113850.283000", "113850.286000", "113850.288000", "113850.291000", "113850.293000", "113850.296000", "113850.298000", "113850.300000", "113850.303000", "113850.305000", "113850.308000", "113850.310000", "113850.313000", "113850.315000", "113850.318000", "113850.320000", "113850.323000", "113850.325000", "113850.328000", "113930.279000", "113930.282000", "113930.285000", "113930.287000", "113930.290000", "113930.292000", "113930.294000", "113930.297000", "113930.299000", "113930.302000", "113930.304000", "113930.307000", "113930.309000", "113930.312000", "113930.314000", "113930.317000", "113930.319000", "113930.322000", "113930.324000", "113930.327000", "114010.280000", "114010.283000", "114010.286000", "114010.288000", "114010.291000", "114010.293000", "114010.295000", "114010.298000", "114010.300000", "114010.303000", "114010.305000", "114010.308000", "114010.310000", "114010.313000", "114010.315000", "114010.318000", "114010.320000", "114010.323000", "114010.325000", "114010.328000", "114050.280000", "114050.283000", "114050.286000", "114050.288000", "114050.290000", "114050.293000", "114050.295000", "114050.298000", "114050.300000", "114050.303000", "114050.305000", "114050.308000", "114050.310000", "114050.313000", "114050.315000", "114050.318000", "114050.320000", "114050.323000", "114050.325000", "114050.328000", "114130.279000", "114130.282000", "114130.285000", "114130.287000", "114130.290000", "114130.292000", "114130.294000", "114130.297000", "114130.299000", "114130.302000", "114130.304000", "114130.307000", "114130.309000", "114130.312000", "114130.314000", "114130.317000", "114130.319000", "114130.322000", "114130.324000", "114130.327000", "114201.603000", "114201.605000", "114201.608000", "114201.610000", "114201.613000", "114201.616000", "114201.618000", "114201.621000", "114201.623000", "114201.626000", "114201.628000", "114201.631000", "114201.635000", "114201.640000", "114201.643000", "114201.646000"],
      "InstanceCreationTime": ["113050.285000", "113050.295000", "113050.297000", "113050.300000", "113050.302000", "113050.305000", "113050.307000", "113050.310000", "113050.312000", "113050.314000", "113050.317000", "113050.319000", "113050.322000", "113050.324000", "113050.327000", "113050.329000", "113050.332000", "113050.334000", "113050.337000", "113050.339000", "113050.342000", "113050.344000", "113050.347000", "113050.349000", "113050.351000", "113050.354000", "113050.356000", "113050.359000", "113130.280000", "113130.283000", "113130.286000", "113130.288000", "113130.302000", "113130.305000", "113130.307000", "113130.310000", "113130.312000", "113130.315000", "113130.317000", "113130.319000", "113130.322000", "113130.324000", "113130.327000", "113130.329000", "113130.332000", "113130.334000", "113130.337000", "113130.339000", "113210.281000", "113210.283000", "113210.286000", "113210.288000", "113210.291000", "113210.293000", "113210.296000", "113210.298000", "113210.301000", "113210.303000", "113210.305000", "113210.308000", "113210.310000", "113210.313000", "113210.315000", "113210.318000", "113210.320000", "113210.323000", "113210.325000", "113210.333000", "113250.279000", "113250.282000", "113250.284000", "113250.287000", "113250.289000", "113250.292000", "113250.294000", "113250.297000", "113250.299000", "113250.302000", "113250.304000", "113250.307000", "113250.309000", "113250.311000", "113250.314000", "113250.316000", "113250.319000", "113250.321000", "113250.324000", "113250.326000", "113330.280000", "113330.283000", "113330.286000", "113330.288000", "113330.290000", "113330.293000", "113330.295000", "113330.298000", "113330.300000", "113330.303000", "113330.305000", "113330.308000", "113330.310000", "113330.312000", "113330.315000", "113330.317000", "113330.320000", "113330.322000", "113330.325000", "113330.327000", "113410.280000", "113410.283000", "113410.286000", "113410.288000", "113410.291000", "113410.293000", "113410.295000", "113410.298000", "113410.300000", "113410.303000", "113410.305000", "113410.308000", "113410.310000", "113410.313000", "113410.324000", "113410.326000", "113410.329000", "113410.331000", "113410.334000", "113410.336000", "113450.279000", "113450.282000", "113450.285000", "113450.287000", "113450.290000", "113450.292000", "113450.294000", "113450.297000", "113450.299000", "113450.302000", "113450.304000", "113450.307000", "113450.309000", "113450.312000", "113450.314000", "113450.316000", "113450.319000", "113450.321000", "113450.324000", "113450.326000", "113530.280000", "113530.283000", "113530.286000", "113530.288000", "113530.291000", "113530.293000", "113530.295000", "113530.298000", "113530.300000", "113530.303000", "113530.305000", "113530.308000", "113530.310000", "113530.313000", "113530.315000", "113530.318000", "113530.320000", "113530.323000", "113530.325000", "113530.328000", "113610.280000", "113610.283000", "113610.286000", "113610.288000", "113610.290000", "113610.293000", "113610.295000", "113610.298000", "113610.300000", "113610.303000", "113610.305000", "113610.308000", "113610.310000", "113610.312000", "113610.315000", "113610.317000", "113610.320000", "113610.322000", "113610.325000", "113610.327000", "113650.280000", "113650.283000", "113650.286000", "113650.299000", "113650.301000", "113650.304000", "113650.306000", "113650.309000", "113650.311000", "113650.314000", "113650.316000", "113650.318000", "113650.321000", "113650.323000", "113650.326000", "113650.328000", "113650.331000", "113650.333000", "113650.336000", "113650.338000", "113730.280000", "113730.282000", "113730.285000", "113730.287000", "113730.290000", "113730.292000", "113730.294000", "113730.297000", "113730.299000", "113730.302000", "113730.304000", "113730.307000", "113730.309000", "113730.312000", "113730.322000", "113730.324000", "113730.327000", "113730.329000", "113730.332000", "113730.334000", "113810.280000", "113810.283000", "113810.286000", "113810.288000", "113810.291000", "113810.293000", "113810.295000", "113810.298000", "113810.300000", "113810.303000", "113810.305000", "113810.308000", "113810.310000", "113810.313000", "113810.315000", "113810.318000", "113810.320000", "113810.322000", "113810.325000", "113810.327000", "113850.280000", "113850.283000", "113850.286000", "113850.288000", "113850.291000", "113850.293000", "113850.296000", "113850.298000", "113850.300000", "113850.303000", "113850.305000", "113850.308000", "113850.310000", "113850.313000", "113850.315000", "113850.318000", "113850.320000", "113850.323000", "113850.325000", "113850.328000", "113930.279000", "113930.282000", "113930.285000", "113930.287000", "113930.290000", "113930.292000", "113930.294000", "113930.297000", "113930.299000", "113930.302000", "113930.304000", "113930.307000", "113930.309000", "113930.312000", "113930.314000", "113930.317000", "113930.319000", "113930.322000", "113930.324000", "113930.327000", "114010.280000", "114010.283000", "114010.286000", "114010.288000", "114010.291000", "114010.293000", "114010.295000", "114010.298000", "114010.300000", "114010.303000", "114010.305000", "114010.308000", "114010.310000", "114010.313000", "114010.315000", "114010.318000", "114010.320000", "114010.323000", "114010.325000", "114010.328000", "114050.280000", "114050.283000", "114050.286000", "114050.288000", "114050.290000", "114050.293000", "114050.295000", "114050.298000", "114050.300000", "114050.303000", "114050.305000", "114050.308000", "114050.310000", "114050.313000", "114050.315000", "114050.318000", "114050.320000", "114050.323000", "114050.325000", "114050.328000", "114130.279000", "114130.282000", "114130.285000", "114130.287000", "114130.290000", "114130.292000", "114130.294000", "114130.297000", "114130.299000", "114130.302000", "114130.304000", "114130.307000", "114130.309000", "114130.312000", "114130.314000", "114130.317000", "114130.319000", "114130.322000", "114130.324000", "114130.327000", "114201.603000", "114201.605000", "114201.608000", "114201.610000", "114201.613000", "114201.616000", "114201.618000", "114201.621000", "114201.623000", "114201.626000", "114201.628000", "114201.631000", "114201.635000", "114201.640000", "114201.643000", "114201.646000"],
      "InstanceNumber": [1, 2, 3, 4, 5, 6, 7, 8, 9, 10, 11, 12, 13, 14, 15, 16, 17, 18, 19, 20, 21, 22, 23, 24, 25, 26, 27, 28, 29, 30, 31, 32, 33, 34, 35, 36, 37, 38, 39, 40, 41, 42, 43, 44, 45, 46, 47, 48, 49, 50, 51, 52, 53, 54, 55, 56, 57, 58, 59, 60, 61, 62, 63, 64, 65, 66, 67, 68, 69, 70, 71, 72, 73, 74, 75, 76, 77, 78, 79, 80, 81, 82, 83, 84, 85, 86, 87, 88, 89, 90, 91, 92, 93, 94, 95, 96, 97, 98, 99, 100, 101, 102, 103, 104, 105, 106, 107, 108, 109, 110, 111, 112, 113, 114, 115, 116, 117, 118, 119, 120, 121, 122, 123, 124, 125, 126, 127, 128, 129, 130, 131, 132, 133, 134, 135, 136, 137, 138, 139, 140, 141, 142, 143, 144, 145, 146, 147, 148, 149, 150, 151, 152, 153, 154, 155, 156, 157, 158, 159, 160, 161, 162, 163, 164, 165, 166, 167, 168, 169, 170, 171, 172, 173, 174, 175, 176, 177, 178, 179, 180, 181, 182, 183, 184, 185, 186, 187, 188, 189, 190, 191, 192, 193, 194, 195, 196, 197, 198, 199, 200, 201, 202, 203, 204, 205, 206, 207, 208, 209, 210, 211, 212, 213, 214, 215, 216, 217, 218, 219, 220, 221, 222, 223, 224, 225, 226, 227, 228, 229, 230, 231, 232, 233, 234, 235, 236, 237, 238, 239, 240, 241, 242, 243, 244, 245, 246, 247, 248, 249, 250, 251, 252, 253, 254, 255, 256, 257, 258, 259, 260, 261, 262, 263, 264, 265, 266, 267, 268, 269, 270, 271, 272, 273, 274, 275, 276, 277, 278, 279, 280, 281, 282, 283, 284, 285, 286, 287, 288, 289, 290, 291, 292, 293, 294, 295, 296, 297, 298, 299, 300, 301, 302, 303, 304, 305, 306, 307, 308, 309, 310, 311, 312, 313, 314, 315, 316, 317, 318, 319, 320, 321, 322, 323, 324, 325, 326, 327, 328, 329, 330, 331, 332, 333, 334, 335, 336, 337, 338, 339, 340, 341, 342, 343, 344, 345, 346, 347, 348, 349, 350, 351, 352, 353, 354, 355, 356, 357, 358, 359, 360, 361, 362, 363, 364],
      "LargestImagePixelValue": [2753, 2724, 2734, 2733, 2713, 2709, 2730, 2714, 2741, 2711, 2733, 2747, 2718, 2745, 2721, 2744, 2721, 2736, 2741, 2717, 2736, 2742, 2733, 2710, 2744, 2751, 2747, 2739, 2738, 2725, 2731, 2745, 2739, 2722, 2737, 2715, 2736, 2738, 2731, 2739, 2726, 2706, 2707, 2709, 2722, 2701, 2726, 2716, 2740, 2721, 2747, 2724, 2724, 2714, 2721, 2704, 2726, 2739, 2718, 2709, 2715, 2729, 2718, 2714, 2700, 2688, 2721, 2699, 2710, 2714, 2693, 2718, 2712, 2706, 2710, 2689, 2724, 2712, 2733, 2722, 2720, 2711, 2707, 2726, 2695, 2714, 2704, 2728, 2701, 2715, 2708, 2728, 2727, 2713, 2712, 2721, 2734, 2722, 2720, 2735, 2722, 2723, 2708, 2726, 2709, 2709, 2691, 2729, 2708, 2722, 2711, 2700, 2706, 2723, 2718, 2695, 2710, 2715, 2715, 2704, 2724, 2765, 2894, 2619, 2608, 2625, 2622, 2653, 2659, 2629, 2668, 2647, 2665, 2672, 2644, 2646, 2658, 2669, 2652, 2634, 2615, 2622, 2642, 2606, 2617, 2621, 2625, 2636, 2621, 2639, 2617, 2606, 2610, 2604, 2632, 2626, 2587, 2600, 2624, 2611, 2616, 2605, 2612, 2622, 2638, 2650, 2598, 2602, 2601, 2623, 2612, 2615, 2616, 2623, 2645, 2674, 2791, 2622, 2601, 2613, 2668, 2598, 2638, 2649, 2632, 2622, 2634, 2631, 2631, 2641, 2629, 2649, 2679, 2651, 2638, 2638, 2652, 2640, 2664, 2639, 2665, 2634, 2657, 2628, 2601, 2614, 2620, 2632, 2617, 2603, 2623, 2609, 2663, 2624, 2610, 2616, 2611, 2617, 2625, 2614, 2640, 2608, 2624, 2679, 2629, 2623, 2624, 2624, 2615, 2627, 2632, 2634, 2639, 2645, 2623, 2626, 2619, 2621, 2630, 2618, 2644, 2626, 2630, 2652, 2640, 2638, 2620, 2642, 2624, 2615, 2646, 2620, 2640, 2640, 2612, 2631, 2620, 2629, 2622, 2615, 2609, 2615, 2622, 2640, 2632, 2636, 2618, 2618, 2633, 2593, 2602, 2606, 2606, 2607, 2612, 2625, 2613, 2633, 2613, 2596, 2620, 2648, 2592, 2613, 2610, 2611, 2647, 2642, 2620, 2619, 2643, 2636, 2646, 2643, 2651, 2628, 2637, 2644, 2643, 2647, 2623, 2616, 2635, 2633, 2624, 2642, 2703, 2974, 2658, 2619, 2596, 2585, 2578, 2597, 2616, 2610, 2607, 2620, 2623, 2607, 2614, 2609, 2632, 2621, 2621, 2618, 2619, 2605, 2613, 2585, 2693, 2763, 2603, 2578, 2584, 2596, 2634, 2638, 2671, 2668, 2694, 2639, 2656, 2588, 2595, 2587, 2595, 2621, 2641, 2579, 2543, 2605, 2589, 2520, 2528, 2579, 2618, 2690, 2630, 2573, 2705, 2563, 2565, 2491],
