{
  "AcquisitionMatrixPE": 64,
  "AcquisitionNumber": 1,
  "AcquisitionTime": "11:16:24.255000",
  "BandwidthPerPixelPhaseEncode": 25.202,
  "BaseResolution": 64,
  "BodyPartExamined": "BRAIN",
  "ConsistencyInfo": "N4_VE11C_LATEST_20160120",
  "ConversionSoftware": "dcm2niix",
  "ConversionSoftwareVersion": "v1.0.20201102",
  "DerivedVendorReportedEchoSpacing": 0.00061999,
  "DeviceSerialNumber": "45758",
  "DwellTime": 4.3e-06,
  "EchoTime": 0.03,
  "EchoTrainLength": 64,
  "EffectiveEchoSpacing": 0.00061999,
  "FlipAngle": 90,
  "ImageOrientationPatientDICOM": [0.999751, 0.00900232, 0.0204125, -0.00697969, 0.995252, -0.0970786],
  "ImageType": [
    "ORIGINAL",
    "PRIMARY",
    "M",
    "ND",
    "MOSAIC"
],
  "ImagingFrequency": 123.2,
  "InPlanePhaseEncodingDirectionDICOM": "ROW",
  "InstitutionAddress": "Street StreetNo,City /652E4B/,District,KR,ZIP",
  "InstitutionName": "DGMIF",
  "InstitutionalDepartmentName": "Department",
  "MRAcquisitionType": "2D",
  "MagneticFieldStrength": 3,
  "Manufacturer": "Siemens",
  "ManufacturersModelName": "Skyra",
  "Modality": "MR",
  "PartialFourier": 1,
  "PatientPosition": "HFS",
  "PercentPhaseFOV": 100,
  "PercentSampling": 100,
  "PhaseEncodingDirection": "i",
  "PhaseEncodingSteps": 64,
  "PhaseResolution": 1,
  "PixelBandwidth": 1815,
  "ProcedureStepDescription": "DGMIF^DGIST",
  "ProtocolName": "EPI_DGIST_2",
  "PulseSequenceDetails": "%SiemensSeq%\\ep2d_bold",
  "ReceiveCoilActiveElements": "HC1-7",
  "ReceiveCoilName": "HeadNeck_64",
  "ReconMatrixPE": 64,
  "RepetitionTime": 2,
  "SAR": 0.121835,
  "ScanOptions": "FS",
  "ScanningSequence": "EP",
  "SequenceName": "*epfid2d1_64",
  "SequenceVariant": "SK",
  "SeriesDescription": "EPI_DGIST_2",
  "SeriesNumber": 3,
  "ShimSetting": [-9749, -13570, -8271, 280, -727, -590, -508, -116],
  "SliceThickness": 4,
  "SliceTiming": [0.99, 0, 1.055, 0.065, 1.1225, 0.1325, 1.1875, 0.1975, 1.2525, 0.2625, 1.32, 0.33, 1.385, 0.395, 1.4525, 0.4625, 1.5175, 0.5275, 1.5825, 0.5925, 1.65, 0.66, 1.715, 0.725, 1.78, 0.7925, 1.8475, 0.8575, 1.9125, 0.9225],
  "SoftwareVersions": "syngo MR E11",
  "SpacingBetweenSlices": 4.8,
  "StationName": "AWP45758",
  "TaskName": "asrt",
  "TotalReadoutTime": 0.0390594,
  "TxRefAmp": 332.13,
  "dcmmeta_affine": [
    [-2.999253273010254, -0.02093907818198204, 0.10170989483594894, 94.77017211914062],
    [-0.027006953954696655, 2.9857566356658936, -0.46517759561538696, -112.11984252929688],
    [0.061237625777721405, 0.29123589396476746, 4.776323318481445, -99.68211364746094],
    [0.0, 0.0, 0.0, 1.0]
],
  "dcmmeta_reorient_transform": [
    [0.0, -1.0, 0.0, 63.0],
    [1.0, 0.0, 0.0, 0.0],
    [0.0, 0.0, 1.0, 0.0],
    [0.0, 0.0, 0.0, 1.0]
],
  "dcmmeta_shape": [64, 64, 30, 364],
  "dcmmeta_slice_dim": 2,
  "dcmmeta_version": 0.6,
  "global": {
    "const": {
      "AcquisitionMatrix": [0, 64, 64, 0],
      "AngioFlag": "N",
      "BitsAllocated": 16,
      "BitsStored": 12,
      "BodyPartExamined": "BRAIN",
      "Columns": 384,
      "EchoNumbers": 1,
      "EchoTime": 30.0,
      "EchoTrainLength": 64,
      "FlipAngle": 90.0,
      "HighBit": 11,
      "ImageOrientationPatient": [0.99975111222947, 0.00900231791916, 0.02041254192938, -0.0069796926009, 0.9952522409615, -0.0970786318008],
      "ImagePositionPatient": [-569.98129191059, -558.02501632664, -44.534530842461],
      "ImageType": [
        "ORIGINAL",
        "PRIMARY",
        "M",
        "ND",
        "MOSAIC"
],
      "ImagedNucleus": "1H",
      "ImagingFrequency": 123.200211,
      "InPlanePhaseEncodingDirection": "ROW",
      "MRAcquisitionType": "2D",
      "MagneticFieldStrength": 3.0,
      "Manufacturer": "SIEMENS",
      "ManufacturerModelName": "Skyra",
      "Modality": "MR",
      "NumberOfAverages": 1.0,
      "NumberOfPhaseEncodingSteps": 64,
      "PercentPhaseFieldOfView": 100.0,
      "PercentSampling": 100.0,
      "PerformedProcedureStepStartTime": "105326.134000",
      "PhotometricInterpretation": "MONOCHROME2",
      "PixelBandwidth": 1815.0,
      "PixelRepresentation": 0,
      "PixelSpacing": [3.0, 3.0],
      "ProtocolName": "EPI_DGIST_2",
      "RepetitionTime": 2000.0,
      "Rows": 384,
      "SAR": 0.1218353553708,
      "SamplesPerPixel": 1,
      "ScanOptions": "FS",
      "ScanningSequence": "EP",
      "SequenceName": "*epfid2d1_64",
      "SequenceVariant": "SK",
      "SeriesDescription": "EPI_DGIST_2",
      "SeriesNumber": 3,
      "SeriesTime": "111723.191000",
      "SliceLocation": -86.316523782952,
      "SliceThickness": 4.0,
      "SmallestImagePixelValue": 0,
      "SoftwareVersions": "syngo MR E11",
      "SpacingBetweenSlices": 4.8000000181547,
      "SpecificCharacterSet": "ISO_IR 100",
      "StudyID": "1",
      "StudyTime": "105326.076000",
      "TransmitCoilName": "Body",
      "VariableFlipAngleFlag": "N",
      "WindowCenterWidthExplanation": "Algo1",
      "dBdt": 0.0},
    "slices": {}
  },
  "time": {
    "samples": {
      "AcquisitionNumber": [1, 2, 3, 4, 5, 6, 7, 8, 9, 10, 11, 12, 13, 14, 15, 16, 17, 18, 19, 20, 21, 22, 23, 24, 25, 26, 27, 28, 29, 30, 31, 32, 33, 34, 35, 36, 37, 38, 39, 40, 41, 42, 43, 44, 45, 46, 47, 48, 49, 50, 51, 52, 53, 54, 55, 56, 57, 58, 59, 60, 61, 62, 63, 64, 65, 66, 67, 68, 69, 70, 71, 72, 73, 74, 75, 76, 77, 78, 79, 80, 81, 82, 83, 84, 85, 86, 87, 88, 89, 90, 91, 92, 93, 94, 95, 96, 97, 98, 99, 100, 101, 102, 103, 104, 105, 106, 107, 108, 109, 110, 111, 112, 113, 114, 115, 116, 117, 118, 119, 120, 121, 122, 123, 124, 125, 126, 127, 128, 129, 130, 131, 132, 133, 134, 135, 136, 137, 138, 139, 140, 141, 142, 143, 144, 145, 146, 147, 148, 149, 150, 151, 152, 153, 154, 155, 156, 157, 158, 159, 160, 161, 162, 163, 164, 165, 166, 167, 168, 169, 170, 171, 172, 173, 174, 175, 176, 177, 178, 179, 180, 181, 182, 183, 184, 185, 186, 187, 188, 189, 190, 191, 192, 193, 194, 195, 196, 197, 198, 199, 200, 201, 202, 203, 204, 205, 206, 207, 208, 209, 210, 211, 212, 213, 214, 215, 216, 217, 218, 219, 220, 221, 222, 223, 224, 225, 226, 227, 228, 229, 230, 231, 232, 233, 234, 235, 236, 237, 238, 239, 240, 241, 242, 243, 244, 245, 246, 247, 248, 249, 250, 251, 252, 253, 254, 255, 256, 257, 258, 259, 260, 261, 262, 263, 264, 265, 266, 267, 268, 269, 270, 271, 272, 273, 274, 275, 276, 277, 278, 279, 280, 281, 282, 283, 284, 285, 286, 287, 288, 289, 290, 291, 292, 293, 294, 295, 296, 297, 298, 299, 300, 301, 302, 303, 304, 305, 306, 307, 308, 309, 310, 311, 312, 313, 314, 315, 316, 317, 318, 319, 320, 321, 322, 323, 324, 325, 326, 327, 328, 329, 330, 331, 332, 333, 334, 335, 336, 337, 338, 339, 340, 341, 342, 343, 344, 345, 346, 347, 348, 349, 350, 351, 352, 353, 354, 355, 356, 357, 358, 359, 360, 361, 362, 363, 364],
      "AcquisitionTime": ["111624.255000", "111626.255000", "111628.255000", "111630.255000", "111632.255000", "111634.255000", "111636.255000", "111638.255000", "111640.255000", "111642.255000", "111644.255000", "111646.255000", "111648.255000", "111650.255000", "111652.255000", "111654.255000", "111656.255000", "111658.255000", "111700.255000", "111702.255000", "111704.255000", "111706.255000", "111708.255000", "111710.255000", "111712.255000", "111714.255000", "111716.255000", "111718.255000", "111720.255000", "111722.255000", "111724.255000", "111726.255000", "111728.255000", "111730.255000", "111732.255000", "111734.255000", "111736.255000", "111738.255000", "111740.255000", "111742.255000", "111744.255000", "111746.255000", "111748.255000", "111750.255000", "111752.255000", "111754.255000", "111756.255000", "111758.255000", "111800.255000", "111802.255000", "111804.255000", "111806.255000", "111808.255000", "111810.255000", "111812.255000", "111814.255000", "111816.255000", "111818.255000", "111820.255000", "111822.255000", "111824.255000", "111826.255000", "111828.255000", "111830.255000", "111832.255000", "111834.255000", "111836.255000", "111838.255000", "111840.255000", "111842.255000", "111844.255000", "111846.255000", "111848.255000", "111850.255000", "111852.255000", "111854.255000", "111856.255000", "111858.255000", "111900.255000", "111902.255000", "111904.255000", "111906.255000", "111908.255000", "111910.255000", "111912.255000", "111914.255000", "111916.255000", "111918.255000", "111920.255000", "111922.255000", "111924.255000", "111926.255000", "111928.255000", "111930.255000", "111932.255000", "111934.255000", "111936.255000", "111938.255000", "111940.255000", "111942.255000", "111944.255000", "111946.255000", "111948.255000", "111950.255000", "111952.255000", "111954.255000", "111956.255000", "111958.255000", "112000.255000", "112002.255000", "112004.255000", "112006.255000", "112008.255000", "112010.255000", "112012.255000", "112014.255000", "112016.255000", "112018.255000", "112020.255000", "112022.255000", "112024.255000", "112026.255000", "112028.255000", "112030.255000", "112032.255000", "112034.255000", "112036.255000", "112038.255000", "112040.255000", "112042.255000", "112044.255000", "112046.255000", "112048.255000", "112050.255000", "112052.255000", "112054.255000", "112056.255000", "112058.255000", "112100.255000", "112102.255000", "112104.255000", "112106.255000", "112108.255000", "112110.255000", "112112.255000", "112114.255000", "112116.255000", "112118.255000", "112120.255000", "112122.255000", "112124.255000", "112126.255000", "112128.255000", "112130.255000", "112132.255000", "112134.255000", "112136.255000", "112138.255000", "112140.255000", "112142.255000", "112144.255000", "112146.255000", "112148.255000", "112150.255000", "112152.255000", "112154.255000", "112156.255000", "112158.255000", "112200.255000", "112202.255000", "112204.255000", "112206.255000", "112208.255000", "112210.255000", "112212.255000", "112214.255000", "112216.255000", "112218.255000", "112220.255000", "112222.255000", "112224.255000", "112226.255000", "112228.255000", "112230.255000", "112232.255000", "112234.255000", "112236.255000", "112238.255000", "112240.255000", "112242.255000", "112244.255000", "112246.255000", "112248.255000", "112250.255000", "112252.255000", "112254.255000", "112256.255000", "112258.255000", "112300.255000", "112302.255000", "112304.255000", "112306.255000", "112308.255000", "112310.255000", "112312.255000", "112314.255000", "112316.255000", "112318.255000", "112320.255000", "112322.255000", "112324.255000", "112326.255000", "112328.255000", "112330.255000", "112332.255000", "112334.255000", "112336.255000", "112338.255000", "112340.255000", "112342.255000", "112344.255000", "112346.255000", "112348.255000", "112350.255000", "112352.255000", "112354.255000", "112356.255000", "112358.255000", "112400.255000", "112402.255000", "112404.255000", "112406.255000", "112408.255000", "112410.255000", "112412.255000", "112414.255000", "112416.255000", "112418.255000", "112420.255000", "112422.255000", "112424.255000", "112426.255000", "112428.255000", "112430.255000", "112432.255000", "112434.255000", "112436.255000", "112438.255000", "112440.255000", "112442.255000", "112444.255000", "112446.255000", "112448.255000", "112450.255000", "112452.255000", "112454.255000", "112456.255000", "112458.255000", "112500.255000", "112502.255000", "112504.255000", "112506.255000", "112508.255000", "112510.255000", "112512.255000", "112514.255000", "112516.255000", "112518.255000", "112520.255000", "112522.255000", "112524.255000", "112526.255000", "112528.255000", "112530.255000", "112532.255000", "112534.255000", "112536.255000", "112538.255000", "112540.255000", "112542.255000", "112544.255000", "112546.255000", "112548.255000", "112550.255000", "112552.255000", "112554.255000", "112556.255000", "112558.255000", "112600.255000", "112602.255000", "112604.255000", "112606.255000", "112608.255000", "112610.255000", "112612.255000", "112614.255000", "112616.255000", "112618.255000", "112620.255000", "112622.255000", "112624.255000", "112626.255000", "112628.255000", "112630.255000", "112632.255000", "112634.255000", "112636.255000", "112638.255000", "112640.255000", "112642.255000", "112644.255000", "112646.255000", "112648.255000", "112650.255000", "112652.255000", "112654.255000", "112656.255000", "112658.255000", "112700.255000", "112702.255000", "112704.255000", "112706.255000", "112708.255000", "112710.255000", "112712.255000", "112714.255000", "112716.255000", "112718.255000", "112720.255000", "112722.255000", "112724.255000", "112726.255000", "112728.255000", "112730.255000", "112732.255000", "112734.255000", "112736.255000", "112738.255000", "112740.255000", "112742.255000", "112744.255000", "112746.255000", "112748.255000", "112750.255000", "112752.255000", "112754.255000", "112756.255000", "112758.255000", "112800.255000", "112802.255000", "112804.255000", "112806.255000", "112808.255000", "112810.255000", "112812.255000", "112814.255000", "112816.255000", "112818.255000", "112820.255000", "112822.255000", "112824.255000", "112826.255000", "112828.255000", "112830.255000"],
      "ContentTime": ["111723.195000", "111723.198000", "111723.205000", "111723.208000", "111723.211000", "111723.213000", "111723.215000", "111723.218000", "111723.220000", "111723.223000", "111723.225000", "111723.228000", "111723.230000", "111723.233000", "111723.235000", "111723.237000", "111723.240000", "111723.242000", "111723.245000", "111723.247000", "111723.250000", "111723.252000", "111723.255000", "111723.257000", "111723.260000", "111723.262000", "111723.265000", "111723.267000", "111723.270000", "111803.190000", "111803.193000", "111803.196000", "111803.198000", "111803.201000", "111803.203000", "111803.206000", "111803.208000", "111803.211000", "111803.213000", "111803.216000", "111803.218000", "111803.221000", "111803.223000", "111803.226000", "111803.228000", "111803.231000", "111803.233000", "111803.236000", "111803.238000", "111843.189000", "111843.192000", "111843.195000", "111843.197000", "111843.200000", "111843.202000", "111843.205000", "111843.208000", "111843.210000", "111843.213000", "111843.215000", "111843.218000", "111843.220000", "111843.223000", "111843.225000", "111843.228000", "111843.230000", "111843.233000", "111843.241000", "111843.243000", "111923.189000", "111923.192000", "111923.195000", "111923.197000", "111923.200000", "111923.202000", "111923.205000", "111923.207000", "111923.210000", "111923.212000", "111923.215000", "111923.217000", "111923.220000", "111923.222000", "111923.225000", "111923.227000", "111923.230000", "111923.232000", "111923.235000", "111923.237000", "112003.190000", "112003.193000", "112003.196000", "112003.198000", "112003.201000", "112003.203000", "112003.206000", "112003.208000", "112003.211000", "112003.213000", "112003.216000", "112003.218000", "112003.221000", "112003.223000", "112003.226000", "112003.228000", "112003.231000", "112003.233000", "112003.236000", "112003.238000", "112043.190000", "112043.193000", "112043.196000", "112043.198000", "112043.201000", "112043.203000", "112043.206000", "112043.209000", "112043.211000", "112043.214000", "112043.216000", "112043.218000", "112043.221000", "112043.223000", "112043.226000", "112043.228000", "112043.231000", "112043.233000", "112043.236000", "112043.238000", "112123.189000", "112123.192000", "112123.195000", "112123.197000", "112123.199000", "112123.202000", "112123.204000", "112123.207000", "112123.210000", "112123.212000", "112123.215000", "112123.217000", "112123.220000", "112123.222000", "112123.225000", "112123.227000", "112123.230000", "112123.232000", "112123.235000", "112123.237000", "112203.189000", "112203.192000", "112203.195000", "112203.197000", "112203.200000", "112203.202000", "112203.205000", "112203.208000", "112203.210000", "112203.212000", "112203.215000", "112203.217000", "112203.220000", "112203.222000", "112203.225000", "112203.227000", "112203.230000", "112203.232000", "112203.235000", "112203.237000", "112243.190000", "112243.193000", "112243.196000", "112243.198000", "112243.201000", "112243.203000", "112243.206000", "112243.209000", "112243.212000", "112243.214000", "112243.217000", "112243.219000", "112243.221000", "112243.224000", "112243.226000", "112243.229000", "112243.231000", "112243.234000", "112243.236000", "112243.239000", "112323.189000", "112323.192000", "112323.195000", "112323.197000", "112323.200000", "112323.202000", "112323.205000", "112323.208000", "112323.210000", "112323.213000", "112323.215000", "112323.218000", "112323.220000", "112323.223000", "112323.225000", "112323.227000", "112323.230000", "112323.232000", "112323.235000", "112323.237000", "112403.189000", "112403.192000", "112403.195000", "112403.197000", "112403.200000", "112403.202000", "112403.205000", "112403.208000", "112403.210000", "112403.213000", "112403.215000", "112403.218000", "112403.220000", "112403.223000", "112403.225000", "112403.227000", "112403.230000", "112403.232000", "112403.235000", "112403.237000", "112443.190000", "112443.193000", "112443.196000", "112443.198000", "112443.201000", "112443.203000", "112443.206000", "112443.209000", "112443.211000", "112443.213000", "112443.216000", "112443.218000", "112443.221000", "112443.223000", "112443.226000", "112443.228000", "112443.231000", "112443.233000", "112443.236000", "112443.238000", "112523.190000", "112523.193000", "112523.196000", "112523.198000", "112523.201000", "112523.203000", "112523.206000", "112523.209000", "112523.211000", "112523.214000", "112523.216000", "112523.219000", "112523.221000", "112523.224000", "112523.226000", "112523.229000", "112523.231000", "112523.234000", "112523.236000", "112523.238000", "112603.189000", "112603.192000", "112603.195000", "112603.197000", "112603.200000", "112603.202000", "112603.205000", "112603.208000", "112603.210000", "112603.213000", "112603.215000", "112603.218000", "112603.220000", "112603.223000", "112603.225000", "112603.228000", "112603.230000", "112603.233000", "112603.235000", "112603.237000", "112643.189000", "112643.192000", "112643.195000", "112643.197000", "112643.200000", "112643.202000", "112643.205000", "112643.208000", "112643.210000", "112643.213000", "112643.215000", "112643.218000", "112643.220000", "112643.223000", "112643.225000", "112643.228000", "112643.230000", "112643.233000", "112643.235000", "112643.238000", "112723.191000", "112723.193000", "112723.196000", "112723.198000", "112723.201000", "112723.203000", "112723.206000", "112723.209000", "112723.211000", "112723.223000", "112723.226000", "112723.228000", "112723.231000", "112723.233000", "112723.236000", "112723.238000", "112723.241000", "112723.243000", "112723.246000", "112723.248000", "112803.189000", "112803.192000", "112803.195000", "112803.197000", "112803.200000", "112803.202000", "112803.205000", "112803.208000", "112803.210000", "112803.213000", "112803.215000", "112803.218000", "112803.221000", "112803.223000", "112803.226000", "112803.228000", "112803.230000", "112803.233000", "112803.235000", "112803.238000", "112832.194000", "112832.197000", "112832.200000", "112832.202000", "112832.205000", "112832.207000", "112832.210000", "112832.212000", "112832.215000", "112832.218000", "112832.220000", "112832.223000", "112832.229000", "112832.232000", "112832.234000"],
      "InstanceCreationTime": ["111723.195000", "111723.198000", "111723.205000", "111723.208000", "111723.211000", "111723.213000", "111723.215000", "111723.218000", "111723.220000", "111723.223000", "111723.225000", "111723.228000", "111723.230000", "111723.233000", "111723.235000", "111723.237000", "111723.240000", "111723.242000", "111723.245000", "111723.247000", "111723.250000", "111723.252000", "111723.255000", "111723.257000", "111723.260000", "111723.262000", "111723.265000", "111723.267000", "111723.270000", "111803.190000", "111803.193000", "111803.196000", "111803.198000", "111803.201000", "111803.203000", "111803.206000", "111803.208000", "111803.211000", "111803.213000", "111803.216000", "111803.218000", "111803.221000", "111803.223000", "111803.226000", "111803.228000", "111803.231000", "111803.233000", "111803.236000", "111803.238000", "111843.189000", "111843.192000", "111843.195000", "111843.197000", "111843.200000", "111843.202000", "111843.205000", "111843.208000", "111843.210000", "111843.213000", "111843.215000", "111843.218000", "111843.220000", "111843.223000", "111843.225000", "111843.228000", "111843.230000", "111843.233000", "111843.241000", "111843.243000", "111923.189000", "111923.192000", "111923.195000", "111923.197000", "111923.200000", "111923.202000", "111923.205000", "111923.207000", "111923.210000", "111923.212000", "111923.215000", "111923.217000", "111923.220000", "111923.222000", "111923.225000", "111923.227000", "111923.230000", "111923.232000", "111923.235000", "111923.237000", "112003.190000", "112003.193000", "112003.196000", "112003.198000", "112003.201000", "112003.203000", "112003.206000", "112003.208000", "112003.211000", "112003.213000", "112003.216000", "112003.218000", "112003.221000", "112003.223000", "112003.226000", "112003.228000", "112003.231000", "112003.233000", "112003.236000", "112003.238000", "112043.190000", "112043.193000", "112043.196000", "112043.198000", "112043.201000", "112043.203000", "112043.206000", "112043.209000", "112043.211000", "112043.214000", "112043.216000", "112043.218000", "112043.221000", "112043.223000", "112043.226000", "112043.228000", "112043.231000", "112043.233000", "112043.236000", "112043.238000", "112123.189000", "112123.192000", "112123.195000", "112123.197000", "112123.199000", "112123.202000", "112123.204000", "112123.207000", "112123.210000", "112123.212000", "112123.215000", "112123.217000", "112123.220000", "112123.222000", "112123.225000", "112123.227000", "112123.230000", "112123.232000", "112123.235000", "112123.237000", "112203.189000", "112203.192000", "112203.195000", "112203.197000", "112203.200000", "112203.202000", "112203.205000", "112203.208000", "112203.210000", "112203.212000", "112203.215000", "112203.217000", "112203.220000", "112203.222000", "112203.225000", "112203.227000", "112203.230000", "112203.232000", "112203.235000", "112203.237000", "112243.190000", "112243.193000", "112243.196000", "112243.198000", "112243.201000", "112243.203000", "112243.206000", "112243.209000", "112243.212000", "112243.214000", "112243.217000", "112243.219000", "112243.221000", "112243.224000", "112243.226000", "112243.229000", "112243.231000", "112243.234000", "112243.236000", "112243.239000", "112323.189000", "112323.192000", "112323.195000", "112323.197000", "112323.200000", "112323.202000", "112323.205000", "112323.208000", "112323.210000", "112323.213000", "112323.215000", "112323.218000", "112323.220000", "112323.223000", "112323.225000", "112323.227000", "112323.230000", "112323.232000", "112323.235000", "112323.237000", "112403.189000", "112403.192000", "112403.195000", "112403.197000", "112403.200000", "112403.202000", "112403.205000", "112403.208000", "112403.210000", "112403.213000", "112403.215000", "112403.218000", "112403.220000", "112403.223000", "112403.225000", "112403.227000", "112403.230000", "112403.232000", "112403.235000", "112403.237000", "112443.190000", "112443.193000", "112443.196000", "112443.198000", "112443.201000", "112443.203000", "112443.206000", "112443.209000", "112443.211000", "112443.213000", "112443.216000", "112443.218000", "112443.221000", "112443.223000", "112443.226000", "112443.228000", "112443.231000", "112443.233000", "112443.236000", "112443.238000", "112523.190000", "112523.193000", "112523.196000", "112523.198000", "112523.201000", "112523.203000", "112523.206000", "112523.209000", "112523.211000", "112523.214000", "112523.216000", "112523.219000", "112523.221000", "112523.224000", "112523.226000", "112523.229000", "112523.231000", "112523.234000", "112523.236000", "112523.238000", "112603.189000", "112603.192000", "112603.195000", "112603.197000", "112603.200000", "112603.202000", "112603.205000", "112603.208000", "112603.210000", "112603.213000", "112603.215000", "112603.218000", "112603.220000", "112603.223000", "112603.225000", "112603.228000", "112603.230000", "112603.233000", "112603.235000", "112603.237000", "112643.189000", "112643.192000", "112643.195000", "112643.197000", "112643.200000", "112643.202000", "112643.205000", "112643.208000", "112643.210000", "112643.213000", "112643.215000", "112643.218000", "112643.220000", "112643.223000", "112643.225000", "112643.228000", "112643.230000", "112643.233000", "112643.235000", "112643.238000", "112723.191000", "112723.193000", "112723.196000", "112723.198000", "112723.201000", "112723.203000", "112723.206000", "112723.209000", "112723.211000", "112723.223000", "112723.226000", "112723.228000", "112723.231000", "112723.233000", "112723.236000", "112723.238000", "112723.241000", "112723.243000", "112723.246000", "112723.248000", "112803.189000", "112803.192000", "112803.195000", "112803.197000", "112803.200000", "112803.202000", "112803.205000", "112803.208000", "112803.210000", "112803.213000", "112803.215000", "112803.218000", "112803.221000", "112803.223000", "112803.226000", "112803.228000", "112803.230000", "112803.233000", "112803.235000", "112803.238000", "112832.194000", "112832.197000", "112832.200000", "112832.202000", "112832.205000", "112832.207000", "112832.210000", "112832.212000", "112832.215000", "112832.218000", "112832.220000", "112832.223000", "112832.229000", "112832.232000", "112832.234000"],
      "InstanceNumber": [1, 2, 3, 4, 5, 6, 7, 8, 9, 10, 11, 12, 13, 14, 15, 16, 17, 18, 19, 20, 21, 22, 23, 24, 25, 26, 27, 28, 29, 30, 31, 32, 33, 34, 35, 36, 37, 38, 39, 40, 41, 42, 43, 44, 45, 46, 47, 48, 49, 50, 51, 52, 53, 54, 55, 56, 57, 58, 59, 60, 61, 62, 63, 64, 65, 66, 67, 68, 69, 70, 71, 72, 73, 74, 75, 76, 77, 78, 79, 80, 81, 82, 83, 84, 85, 86, 87, 88, 89, 90, 91, 92, 93, 94, 95, 96, 97, 98, 99, 100, 101, 102, 103, 104, 105, 106, 107, 108, 109, 110, 111, 112, 113, 114, 115, 116, 117, 118, 119, 120, 121, 122, 123, 124, 125, 126, 127, 128, 129, 130, 131, 132, 133, 134, 135, 136, 137, 138, 139, 140, 141, 142, 143, 144, 145, 146, 147, 148, 149, 150, 151, 152, 153, 154, 155, 156, 157, 158, 159, 160, 161, 162, 163, 164, 165, 166, 167, 168, 169, 170, 171, 172, 173, 174, 175, 176, 177, 178, 179, 180, 181, 182, 183, 184, 185, 186, 187, 188, 189, 190, 191, 192, 193, 194, 195, 196, 197, 198, 199, 200, 201, 202, 203, 204, 205, 206, 207, 208, 209, 210, 211, 212, 213, 214, 215, 216, 217, 218, 219, 220, 221, 222, 223, 224, 225, 226, 227, 228, 229, 230, 231, 232, 233, 234, 235, 236, 237, 238, 239, 240, 241, 242, 243, 244, 245, 246, 247, 248, 249, 250, 251, 252, 253, 254, 255, 256, 257, 258, 259, 260, 261, 262, 263, 264, 265, 266, 267, 268, 269, 270, 271, 272, 273, 274, 275, 276, 277, 278, 279, 280, 281, 282, 283, 284, 285, 286, 287, 288, 289, 290, 291, 292, 293, 294, 295, 296, 297, 298, 299, 300, 301, 302, 303, 304, 305, 306, 307, 308, 309, 310, 311, 312, 313, 314, 315, 316, 317, 318, 319, 320, 321, 322, 323, 324, 325, 326, 327, 328, 329, 330, 331, 332, 333, 334, 335, 336, 337, 338, 339, 340, 341, 342, 343, 344, 345, 346, 347, 348, 349, 350, 351, 352, 353, 354, 355, 356, 357, 358, 359, 360, 361, 362, 363, 364],
      "LargestImagePixelValue": [2771, 2742, 2754, 2769, 2755, 2721, 2726, 2743, 2723, 2750, 2736, 2724, 2724, 2739, 2748, 2704, 2730, 2722, 2726, 2707, 2720, 2716, 2744, 2729, 2734, 2703, 2705, 2715, 2734, 2725, 2741, 2733, 2713, 2726, 2719, 2714, 2712, 2710, 2709, 2718, 2719, 2719, 2706, 2696, 2710, 2711, 2704, 2715, 2710, 2711, 2710, 2715, 2707, 2703, 2715, 2716, 2712, 2693, 2709, 2719, 2723, 2724, 2712, 2711, 2716, 2717, 2717, 2726, 2718, 2724, 2716, 2717, 2723, 2720, 2725, 2728, 2721, 2734, 2723, 2729, 2722, 2710, 2711, 2717, 2711, 2710, 2736, 2750, 2715, 2717, 2738, 2723, 2715, 2725, 2724, 2726, 2711, 2707, 2718, 2729, 2722, 2733, 2751, 2728, 2728, 2730, 2736, 2729, 2731, 2731, 2723, 2735, 2713, 2722, 2714, 2727, 2728, 2723, 2731, 2747, 2728, 2701, 2712, 2718, 2733, 2720, 2695, 2715, 2731, 2736, 2734, 2727, 2728, 2736, 2729, 2709, 2737, 2728, 2733, 2741, 2736, 2739, 2735, 2741, 2729, 2745, 2747, 2736, 2729, 2746, 2751, 2869, 2791, 2632, 2666, 2672, 2677, 2683, 2685, 2691, 2690, 2704, 2695, 2677, 2676, 2681, 2678, 2685, 2686, 2690, 2693, 2694, 2687, 2672, 2646, 2663, 2662, 2656, 2671, 2674, 2672, 2670, 2697, 2646, 2643, 2642, 2640, 2653, 2648, 2659, 2645, 2646, 2649, 2656, 2654, 2648, 2650, 2652, 2654, 2656, 2651, 2661, 2666, 2661, 2631, 2635, 2639, 2635, 2649, 2644, 2635, 2651, 2647, 2649, 2652, 2649, 2628, 2651, 2661, 2655, 2659, 2658, 2648, 2646, 2652, 2661, 2664, 2653, 2656, 2666, 2663, 2661, 2659, 2669, 2664, 2654, 2665, 2668, 2649, 2656, 2661, 2667, 2671, 2683, 2680, 2667, 2681, 2676, 2682, 2680, 2686, 2690, 2689, 2717, 2702, 2693, 2686, 2694, 2699, 2671, 2682, 2693, 2690, 2670, 2669, 2679, 2685, 2700, 2684, 2663, 2665, 2679, 2675, 2673, 2675, 2692, 2670, 2677, 2678, 2683, 2686, 2699, 2672, 2673, 2691, 2694, 2698, 2694, 2687, 2667, 2682, 2679, 2689, 2675, 2664, 2672, 2696, 2685, 2683, 2677, 2694, 2667, 2678, 2688, 2684, 2686, 2686, 2679, 2683, 2672, 2669, 2696, 2688, 2666, 2664, 2676, 2677, 2660, 2680, 2670, 2665, 2682, 2668, 2683, 2684, 2692, 2691, 2684, 2682, 2672, 2767, 2846, 2762, 2553, 2525, 2561, 2639, 2672, 2726, 2653, 2668, 2666, 2640, 2636, 2682, 2673, 2738, 2703, 2757, 2692, 2736, 2738, 2670, 2671, 2681, 2733, 2676, 2644, 2666, 2650, 2651, 2666, 2693, 2625],
