{
  "AcquisitionMatrixPE": 64,
  "AcquisitionNumber": 1,
  "AcquisitionTime": "10:57:43.367500",
  "BandwidthPerPixelPhaseEncode": 25.202,
  "BaseResolution": 64,
  "BodyPartExamined": "BRAIN",
  "ConsistencyInfo": "N4_VE11C_LATEST_20160120",
  "ConversionSoftware": "dcm2niix",
  "ConversionSoftwareVersion": "v1.0.20201102",
  "DerivedVendorReportedEchoSpacing": 0.00061999,
  "DeviceSerialNumber": "45758",
  "DwellTime": 4.3e-06,
  "EchoTime": 0.03,
  "EchoTrainLength": 64,
  "EffectiveEchoSpacing": 0.00061999,
  "FlipAngle": 90,
  "ImageOrientationPatientDICOM": [0.999751, 0.00900232, 0.0204125, -0.00697969, 0.995252, -0.0970786],
  "ImageType": [
    "ORIGINAL",
    "PRIMARY",
    "M",
    "ND",
    "MOSAIC"
],
  "ImagingFrequency": 123.2,
  "InPlanePhaseEncodingDirectionDICOM": "ROW",
  "InstitutionAddress": "Street StreetNo,City /652E4B/,District,KR,ZIP",
  "InstitutionName": "DGMIF",
  "InstitutionalDepartmentName": "Department",
  "MRAcquisitionType": "2D",
  "MagneticFieldStrength": 3,
  "Manufacturer": "Siemens",
  "ManufacturersModelName": "Skyra",
  "Modality": "MR",
  "PartialFourier": 1,
  "PatientPosition": "HFS",
  "PercentPhaseFOV": 100,
  "PercentSampling": 100,
  "PhaseEncodingDirection": "i",
  "PhaseEncodingSteps": 64,
  "PhaseResolution": 1,
  "PixelBandwidth": 1815,
  "ProcedureStepDescription": "DGMIF^DGIST",
  "ProtocolName": "EPI_DGIST_1",
  "PulseSequenceDetails": "%SiemensSeq%\\ep2d_bold",
  "ReceiveCoilActiveElements": "HC1-7",
  "ReceiveCoilName": "HeadNeck_64",
  "ReconMatrixPE": 64,
  "RepetitionTime": 2,
  "SAR": 0.121835,
  "ScanOptions": "FS",
  "ScanningSequence": "EP",
  "SequenceName": "*epfid2d1_64",
  "SequenceVariant": "SK",
  "SeriesDescription": "EPI_DGIST_1",
  "SeriesNumber": 2,
  "ShimSetting": [-9749, -13570, -8271, 280, -727, -590, -508, -116],
  "SliceThickness": 4,
  "SliceTiming": [0.99, 0, 1.055, 0.0675, 1.1225, 0.1325, 1.1875, 0.1975, 1.255, 0.265, 1.32, 0.33, 1.385, 0.3975, 1.4525, 0.4625, 1.5175, 0.5275, 1.585, 0.595, 1.65, 0.66, 1.715, 0.7275, 1.7825, 0.7925, 1.8475, 0.8575, 1.915, 0.925],
  "SoftwareVersions": "syngo MR E11",
  "SpacingBetweenSlices": 4.8,
  "StationName": "AWP45758",
  "TaskName": "asrt",
  "TotalReadoutTime": 0.0390594,
  "TxRefAmp": 332.13,
  "dcmmeta_affine": [
    [-2.999253273010254, -0.02093907818198204, 0.10170989483594894, 94.77017211914062],
    [-0.027006953954696655, 2.9857566356658936, -0.46517759561538696, -112.11984252929688],
    [0.061237625777721405, 0.29123589396476746, 4.776323318481445, -99.68211364746094],
    [0.0, 0.0, 0.0, 1.0]
],
  "dcmmeta_reorient_transform": [
    [0.0, -1.0, 0.0, 63.0],
    [1.0, 0.0, 0.0, 0.0],
    [0.0, 0.0, 1.0, 0.0],
    [0.0, 0.0, 0.0, 1.0]
],
  "dcmmeta_shape": [64, 64, 30, 514],
  "dcmmeta_slice_dim": 2,
  "dcmmeta_version": 0.6,
  "global": {
    "const": {
      "AcquisitionMatrix": [0, 64, 64, 0],
      "AngioFlag": "N",
      "BitsAllocated": 16,
      "BitsStored": 12,
      "BodyPartExamined": "BRAIN",
      "Columns": 384,
      "EchoNumbers": 1,
      "EchoTime": 30.0,
      "EchoTrainLength": 64,
      "FlipAngle": 90.0,
      "HighBit": 11,
      "ImageOrientationPatient": [0.99975111222947, 0.00900231791916, 0.02041254192938, -0.0069796926009, 0.9952522409615, -0.0970786318008],
      "ImagePositionPatient": [-569.98129191059, -558.02501632664, -44.534530842461],
      "ImageType": [
        "ORIGINAL",
        "PRIMARY",
        "M",
        "ND",
        "MOSAIC"
],
      "ImagedNucleus": "1H",
      "ImagingFrequency": 123.200196,
      "InPlanePhaseEncodingDirection": "ROW",
      "MRAcquisitionType": "2D",
      "MagneticFieldStrength": 3.0,
      "Manufacturer": "SIEMENS",
      "ManufacturerModelName": "Skyra",
      "Modality": "MR",
      "NumberOfAverages": 1.0,
      "NumberOfPhaseEncodingSteps": 64,
      "PercentPhaseFieldOfView": 100.0,
      "PercentSampling": 100.0,
      "PerformedProcedureStepStartTime": "105326.134000",
      "PhotometricInterpretation": "MONOCHROME2",
      "PixelBandwidth": 1815.0,
      "PixelRepresentation": 0,
      "PixelSpacing": [3.0, 3.0],
      "ProtocolName": "EPI_DGIST_1",
      "RepetitionTime": 2000.0,
      "Rows": 384,
      "SAR": 0.12183535697066,
      "SamplesPerPixel": 1,
      "ScanOptions": "FS",
      "ScanningSequence": "EP",
      "SequenceName": "*epfid2d1_64",
      "SequenceVariant": "SK",
      "SeriesDescription": "EPI_DGIST_1",
      "SeriesNumber": 2,
      "SeriesTime": "105834.266000",
      "SliceLocation": -86.316523782952,
      "SliceThickness": 4.0,
      "SmallestImagePixelValue": 0,
      "SoftwareVersions": "syngo MR E11",
      "SpacingBetweenSlices": 4.8000000181547,
      "SpecificCharacterSet": "ISO_IR 100",
      "StudyID": "1",
      "StudyTime": "105326.076000",
      "TransmitCoilName": "Body",
      "VariableFlipAngleFlag": "N",
      "WindowCenterWidthExplanation": "Algo1",
      "dBdt": 0.0},
    "slices": {}
  },
  "time": {
    "samples": {
      "AcquisitionNumber": [1, 2, 3, 4, 5, 6, 7, 8, 9, 10, 11, 12, 13, 14, 15, 16, 17, 18, 19, 20, 21, 22, 23, 24, 25, 26, 27, 28, 29, 30, 31, 32, 33, 34, 35, 36, 37, 38, 39, 40, 41, 42, 43, 44, 45, 46, 47, 48, 49, 50, 51, 52, 53, 54, 55, 56, 57, 58, 59, 60, 61, 62, 63, 64, 65, 66, 67, 68, 69, 70, 71, 72, 73, 74, 75, 76, 77, 78, 79, 80, 81, 82, 83, 84, 85, 86, 87, 88, 89, 90, 91, 92, 93, 94, 95, 96, 97, 98, 99, 100, 101, 102, 103, 104, 105, 106, 107, 108, 109, 110, 111, 112, 113, 114, 115, 116, 117, 118, 119, 120, 121, 122, 123, 124, 125, 126, 127, 128, 129, 130, 131, 132, 133, 134, 135, 136, 137, 138, 139, 140, 141, 142, 143, 144, 145, 146, 147, 148, 149, 150, 151, 152, 153, 154, 155, 156, 157, 158, 159, 160, 161, 162, 163, 164, 165, 166, 167, 168, 169, 170, 171, 172, 173, 174, 175, 176, 177, 178, 179, 180, 181, 182, 183, 184, 185, 186, 187, 188, 189, 190, 191, 192, 193, 194, 195, 196, 197, 198, 199, 200, 201, 202, 203, 204, 205, 206, 207, 208, 209, 210, 211, 212, 213, 214, 215, 216, 217, 218, 219, 220, 221, 222, 223, 224, 225, 226, 227, 228, 229, 230, 231, 232, 233, 234, 235, 236, 237, 238, 239, 240, 241, 242, 243, 244, 245, 246, 247, 248, 249, 250, 251, 252, 253, 254, 255, 256, 257, 258, 259, 260, 261, 262, 263, 264, 265, 266, 267, 268, 269, 270, 271, 272, 273, 274, 275, 276, 277, 278, 279, 280, 281, 282, 283, 284, 285, 286, 287, 288, 289, 290, 291, 292, 293, 294, 295, 296, 297, 298, 299, 300, 301, 302, 303, 304, 305, 306, 307, 308, 309, 310, 311, 312, 313, 314, 315, 316, 317, 318, 319, 320, 321, 322, 323, 324, 325, 326, 327, 328, 329, 330, 331, 332, 333, 334, 335, 336, 337, 338, 339, 340, 341, 342, 343, 344, 345, 346, 347, 348, 349, 350, 351, 352, 353, 354, 355, 356, 357, 358, 359, 360, 361, 362, 363, 364, 365, 366, 367, 368, 369, 370, 371, 372, 373, 374, 375, 376, 377, 378, 379, 380, 381, 382, 383, 384, 385, 386, 387, 388, 389, 390, 391, 392, 393, 394, 395, 396, 397, 398, 399, 400, 401, 402, 403, 404, 405, 406, 407, 408, 409, 410, 411, 412, 413, 414, 415, 416, 417, 418, 419, 420, 421, 422, 423, 424, 425, 426, 427, 428, 429, 430, 431, 432, 433, 434, 435, 436, 437, 438, 439, 440, 441, 442, 443, 444, 445, 446, 447, 448, 449, 450, 451, 452, 453, 454, 455, 456, 457, 458, 459, 460, 461, 462, 463, 464, 465, 466, 467, 468, 469, 470, 471, 472, 473, 474, 475, 476, 477, 478, 479, 480, 481, 482, 483, 484, 485, 486, 487, 488, 489, 490, 491, 492, 493, 494, 495, 496, 497, 498, 499, 500, 501, 502, 503, 504, 505, 506, 507, 508, 509, 510, 511, 512, 513, 514],
      "AcquisitionTime": ["105743.367500", "105745.367500", "105747.367500", "105749.367500", "105751.367500", "105753.367500", "105755.367500", "105757.367500", "105759.367500", "105801.367500", "105803.367500", "105805.367500", "105807.367500", "105809.367500", "105811.367500", "105813.367500", "105815.367500", "105817.367500", "105819.367500", "105821.367500", "105823.367500", "105825.367500", "105827.367500", "105829.367500", "105831.367500", "105833.367500", "105835.367500", "105837.367500", "105839.367500", "105841.367500", "105843.367500", "105845.367500", "105847.367500", "105849.367500", "105851.367500", "105853.367500", "105855.367500", "105857.367500", "105859.367500", "105901.367500", "105903.367500", "105905.367500", "105907.367500", "105909.367500", "105911.367500", "105913.367500", "105915.367500", "105917.367500", "105919.367500", "105921.367500", "105923.367500", "105925.367500", "105927.367500", "105929.367500", "105931.367500", "105933.367500", "105935.367500", "105937.367500", "105939.367500", "105941.367500", "105943.367500", "105945.367500", "105947.367500", "105949.367500", "105951.367500", "105953.367500", "105955.367500", "105957.367500", "105959.367500", "110001.367500", "110003.367500", "110005.367500", "110007.367500", "110009.367500", "110011.367500", "110013.367500", "110015.367500", "110017.367500", "110019.367500", "110021.367500", "110023.367500", "110025.367500", "110027.367500", "110029.367500", "110031.367500", "110033.367500", "110035.367500", "110037.367500", "110039.367500", "110041.367500", "110043.367500", "110045.367500", "110047.367500", "110049.367500", "110051.367500", "110053.367500", "110055.367500", "110057.367500", "110059.367500", "110101.367500", "110103.367500", "110105.367500", "110107.367500", "110109.367500", "110111.367500", "110113.367500", "110115.367500", "110117.367500", "110119.367500", "110121.367500", "110123.367500", "110125.367500", "110127.367500", "110129.367500", "110131.367500", "110133.367500", "110135.367500", "110137.367500", "110139.367500", "110141.367500", "110143.367500", "110145.367500", "110147.367500", "110149.367500", "110151.367500", "110153.367500", "110155.367500", "110157.367500", "110159.367500", "110201.367500", "110203.367500", "110205.367500", "110207.367500", "110209.367500", "110211.367500", "110213.367500", "110215.367500", "110217.367500", "110219.367500", "110221.367500", "110223.367500", "110225.367500", "110227.367500", "110229.367500", "110231.367500", "110233.367500", "110235.367500", "110237.367500", "110239.367500", "110241.367500", "110243.367500", "110245.367500", "110247.367500", "110249.367500", "110251.367500", "110253.367500", "110255.367500", "110257.367500", "110259.367500", "110301.367500", "110303.367500", "110305.367500", "110307.367500", "110309.367500", "110311.367500", "110313.367500", "110315.367500", "110317.367500", "110319.367500", "110321.367500", "110323.367500", "110325.367500", "110327.367500", "110329.367500", "110331.367500", "110333.367500", "110335.367500", "110337.367500", "110339.367500", "110341.367500", "110343.367500", "110345.367500", "110347.367500", "110349.367500", "110351.367500", "110353.367500", "110355.367500", "110357.367500", "110359.367500", "110401.367500", "110403.367500", "110405.367500", "110407.367500", "110409.367500", "110411.367500", "110413.367500", "110415.367500", "110417.367500", "110419.367500", "110421.367500", "110423.367500", "110425.367500", "110427.367500", "110429.367500", "110431.367500", "110433.367500", "110435.367500", "110437.367500", "110439.367500", "110441.367500", "110443.367500", "110445.367500", "110447.367500", "110449.367500", "110451.367500", "110453.367500", "110455.367500", "110457.367500", "110459.367500", "110501.367500", "110503.367500", "110505.367500", "110507.367500", "110509.367500", "110511.367500", "110513.367500", "110515.367500", "110517.367500", "110519.367500", "110521.367500", "110523.367500", "110525.367500", "110527.367500", "110529.367500", "110531.367500", "110533.367500", "110535.367500", "110537.367500", "110539.367500", "110541.367500", "110543.367500", "110545.367500", "110547.367500", "110549.367500", "110551.367500", "110553.367500", "110555.367500", "110557.367500", "110559.367500", "110601.367500", "110603.367500", "110605.367500", "110607.367500", "110609.367500", "110611.367500", "110613.367500", "110615.367500", "110617.367500", "110619.367500", "110621.367500", "110623.367500", "110625.367500", "110627.367500", "110629.367500", "110631.367500", "110633.367500", "110635.367500", "110637.367500", "110639.367500", "110641.367500", "110643.367500", "110645.367500", "110647.367500", "110649.367500", "110651.367500", "110653.367500", "110655.367500", "110657.367500", "110659.367500", "110701.367500", "110703.367500", "110705.367500", "110707.367500", "110709.367500", "110711.367500", "110713.367500", "110715.367500", "110717.367500", "110719.367500", "110721.367500", "110723.367500", "110725.367500", "110727.367500", "110729.367500", "110731.367500", "110733.367500", "110735.367500", "110737.367500", "110739.367500", "110741.367500", "110743.367500", "110745.367500", "110747.367500", "110749.367500", "110751.367500", "110753.367500", "110755.367500", "110757.367500", "110759.367500", "110801.367500", "110803.367500", "110805.367500", "110807.367500", "110809.367500", "110811.367500", "110813.367500", "110815.367500", "110817.367500", "110819.367500", "110821.367500", "110823.367500", "110825.367500", "110827.367500", "110829.367500", "110831.367500", "110833.367500", "110835.367500", "110837.367500", "110839.367500", "110841.367500", "110843.367500", "110845.367500", "110847.367500", "110849.367500", "110851.367500", "110853.367500", "110855.367500", "110857.367500", "110859.367500", "110901.367500", "110903.367500", "110905.367500", "110907.367500", "110909.367500", "110911.367500", "110913.367500", "110915.367500", "110917.367500", "110919.367500", "110921.367500", "110923.367500", "110925.367500", "110927.367500", "110929.367500", "110931.367500", "110933.367500", "110935.367500", "110937.367500", "110939.367500", "110941.367500", "110943.367500", "110945.367500", "110947.367500", "110949.367500", "110951.367500", "110953.367500", "110955.367500", "110957.367500", "110959.367500", "111001.367500", "111003.367500", "111005.367500", "111007.367500", "111009.367500", "111011.367500", "111013.367500", "111015.367500", "111017.367500", "111019.367500", "111021.367500", "111023.367500", "111025.367500", "111027.367500", "111029.367500", "111031.367500", "111033.367500", "111035.367500", "111037.367500", "111039.367500", "111041.367500", "111043.367500", "111045.367500", "111047.367500", "111049.367500", "111051.367500", "111053.367500", "111055.367500", "111057.367500", "111059.367500", "111101.367500", "111103.367500", "111105.367500", "111107.367500", "111109.367500", "111111.367500", "111113.367500", "111115.367500", "111117.367500", "111119.367500", "111121.367500", "111123.367500", "111125.367500", "111127.367500", "111129.367500", "111131.367500", "111133.367500", "111135.367500", "111137.367500", "111139.367500", "111141.367500", "111143.367500", "111145.367500", "111147.367500", "111149.367500", "111151.367500", "111153.367500", "111155.367500", "111157.367500", "111159.367500", "111201.367500", "111203.367500", "111205.367500", "111207.367500", "111209.367500", "111211.367500", "111213.367500", "111215.367500", "111217.367500", "111219.367500", "111221.367500", "111223.367500", "111225.367500", "111227.367500", "111229.367500", "111231.367500", "111233.367500", "111235.367500", "111237.367500", "111239.367500", "111241.367500", "111243.367500", "111245.367500", "111247.367500", "111249.367500", "111251.367500", "111253.367500", "111255.367500", "111257.367500", "111259.367500", "111301.367500", "111303.367500", "111305.367500", "111307.367500", "111309.367500", "111311.367500", "111313.367500", "111315.367500", "111317.367500", "111319.367500", "111321.367500", "111323.367500", "111325.367500", "111327.367500", "111329.367500", "111331.367500", "111333.367500", "111335.367500", "111337.367500", "111339.367500", "111341.367500", "111343.367500", "111345.367500", "111347.367500", "111349.367500", "111351.367500", "111353.367500", "111355.367500", "111357.367500", "111359.367500", "111401.367500", "111403.367500", "111405.367500", "111407.367500", "111409.367500", "111411.367500", "111413.367500", "111415.367500", "111417.367500", "111419.367500", "111421.367500", "111423.367500", "111425.367500", "111427.367500", "111429.367500", "111431.367500", "111433.367500", "111435.367500", "111437.367500", "111439.367500", "111441.367500", "111443.367500", "111445.367500", "111447.367500", "111449.367500"],
      "ContentTime": ["105834.269000", "105834.273000", "105834.275000", "105834.278000", "105834.280000", "105834.289000", "105834.291000", "105834.294000", "105834.296000", "105834.298000", "105834.301000", "105834.308000", "105834.311000", "105834.313000", "105834.321000", "105834.324000", "105834.326000", "105834.329000", "105834.331000", "105834.334000", "105834.336000", "105834.339000", "105834.341000", "105834.344000", "105834.346000", "105914.264000", "105914.267000", "105914.270000", "105914.272000", "105914.275000", "105914.277000", "105914.280000", "105914.282000", "105914.285000", "105914.287000", "105914.290000", "105914.292000", "105914.295000", "105914.297000", "105914.300000", "105914.302000", "105914.304000", "105914.316000", "105914.319000", "105914.321000", "105954.263000", "105954.266000", "105954.269000", "105954.271000", "105954.274000", "105954.276000", "105954.278000", "105954.281000", "105954.283000", "105954.286000", "105954.288000", "105954.291000", "105954.293000", "105954.296000", "105954.298000", "105954.300000", "105954.303000", "105954.305000", "105954.308000", "105954.311000", "110034.264000", "110034.267000", "110034.270000", "110034.272000", "110034.275000", "110034.277000", "110034.280000", "110034.282000", "110034.284000", "110034.287000", "110034.289000", "110034.292000", "110034.294000", "110034.297000", "110034.299000", "110034.302000", "110034.304000", "110034.307000", "110034.309000", "110034.312000", "110114.264000", "110114.267000", "110114.270000", "110114.272000", "110114.275000", "110114.277000", "110114.280000", "110114.282000", "110114.285000", "110114.287000", "110114.289000", "110114.292000", "110114.294000", "110114.297000", "110114.299000", "110114.302000", "110114.304000", "110114.307000", "110114.309000", "110114.312000", "110154.263000", "110154.266000", "110154.269000", "110154.271000", "110154.274000", "110154.276000", "110154.279000", "110154.281000", "110154.283000", "110154.286000", "110154.288000", "110154.291000", "110154.293000", "110154.296000", "110154.298000", "110154.301000", "110154.303000", "110154.305000", "110154.308000", "110154.310000", "110214.264000", "110214.266000", "110214.269000", "110214.271000", "110214.274000", "110214.276000", "110214.279000", "110214.281000", "110214.284000", "110214.286000", "110254.264000", "110254.267000", "110254.270000", "110254.272000", "110254.275000", "110254.277000", "110254.279000", "110254.282000", "110254.284000", "110254.287000", "110254.289000", "110254.292000", "110254.294000", "110254.297000", "110254.299000", "110254.302000", "110254.304000", "110254.307000", "110254.309000", "110254.312000", "110334.264000", "110334.267000", "110334.270000", "110334.272000", "110334.275000", "110334.277000", "110334.280000", "110334.282000", "110334.285000", "110334.287000", "110334.289000", "110334.292000", "110334.294000", "110334.297000", "110334.299000", "110334.302000", "110334.304000", "110334.307000", "110334.309000", "110334.312000", "110414.263000", "110414.266000", "110414.269000", "110414.271000", "110414.274000", "110414.276000", "110414.279000", "110414.281000", "110414.284000", "110414.286000", "110414.288000", "110414.291000", "110414.293000", "110414.296000", "110414.298000", "110414.301000", "110414.303000", "110414.306000", "110414.308000", "110414.311000", "110454.264000", "110454.267000", "110454.270000", "110454.272000", "110454.275000", "110454.277000", "110454.280000", "110454.282000", "110454.284000", "110454.287000", "110454.289000", "110454.292000", "110454.294000", "110454.297000", "110454.299000", "110454.302000", "110454.304000", "110454.307000", "110454.309000", "110454.311000", "110534.264000", "110534.267000", "110534.270000", "110534.272000", "110534.275000", "110534.277000", "110534.280000", "110534.282000", "110534.285000", "110534.287000", "110534.290000", "110534.292000", "110534.294000", "110534.297000", "110534.299000", "110534.302000", "110534.304000", "110534.307000", "110534.309000", "110534.312000", "110614.264000", "110614.267000", "110614.270000", "110614.272000", "110614.275000", "110614.277000", "110614.280000", "110614.282000", "110614.285000", "110614.287000", "110614.290000", "110614.292000", "110614.294000", "110614.297000", "110614.299000", "110614.302000", "110614.304000", "110614.307000", "110614.309000", "110614.312000", "110654.263000", "110654.266000", "110654.269000", "110654.271000", "110654.274000", "110654.276000", "110654.279000", "110654.281000", "110654.284000", "110654.286000", "110654.288000", "110654.291000", "110654.293000", "110654.296000", "110654.298000", "110654.301000", "110654.303000", "110654.306000", "110654.308000", "110654.311000", "110734.265000", "110734.267000", "110734.270000", "110734.273000", "110734.275000", "110734.277000", "110734.280000", "110734.282000", "110734.285000", "110734.287000", "110734.290000", "110734.292000", "110734.295000", "110734.297000", "110734.299000", "110734.302000", "110734.304000", "110734.307000", "110734.309000", "110734.312000", "110814.264000", "110814.267000", "110814.270000", "110814.272000", "110814.275000", "110814.277000", "110814.280000", "110814.282000", "110814.285000", "110814.287000", "110814.290000", "110814.292000", "110814.295000", "110814.297000", "110814.299000", "110814.302000", "110814.304000", "110814.307000", "110814.309000", "110814.312000", "110854.263000", "110854.266000", "110854.269000", "110854.271000", "110854.274000", "110854.276000", "110854.279000", "110854.281000", "110854.284000", "110854.286000", "110854.289000", "110854.291000", "110854.294000", "110854.296000", "110854.298000", "110854.301000", "110854.303000", "110854.306000", "110854.308000", "110854.311000", "110934.264000", "110934.267000", "110934.270000", "110934.272000", "110934.275000", "110934.289000", "110934.292000", "110934.294000", "110934.296000", "110934.299000", "110934.301000", "110934.304000", "110934.306000", "110934.309000", "110934.311000", "110934.314000", "110934.316000", "110934.319000", "110934.321000", "110934.323000", "111014.265000", "111014.267000", "111014.270000", "111014.272000", "111014.275000", "111014.277000", "111014.280000", "111014.282000", "111014.285000", "111014.287000", "111014.290000", "111014.292000", "111014.295000", "111014.297000", "111014.300000", "111014.302000", "111014.305000", "111014.307000", "111014.309000", "111014.312000", "111054.265000", "111054.267000", "111054.270000", "111054.272000", "111054.275000", "111054.277000", "111054.280000", "111054.282000", "111054.285000", "111054.287000", "111054.290000", "111054.292000", "111054.295000", "111054.297000", "111054.300000", "111054.302000", "111054.304000", "111054.307000", "111054.309000", "111054.312000", "111134.263000", "111134.266000", "111134.269000", "111134.271000", "111134.274000", "111134.276000", "111134.279000", "111134.281000", "111134.284000", "111134.286000", "111134.289000", "111134.291000", "111134.294000", "111134.296000", "111134.299000", "111134.301000", "111134.304000", "111134.306000", "111134.308000", "111134.311000", "111214.265000", "111214.267000", "111214.270000", "111214.272000", "111214.275000", "111214.277000", "111214.280000", "111214.282000", "111214.285000", "111214.287000", "111214.290000", "111214.292000", "111214.295000", "111214.297000", "111214.300000", "111214.302000", "111214.305000", "111214.307000", "111214.310000", "111214.312000", "111254.265000", "111254.267000", "111254.270000", "111254.272000", "111254.275000", "111254.277000", "111254.280000", "111254.282000", "111254.285000", "111254.287000", "111254.290000", "111254.292000", "111254.295000", "111254.297000", "111254.300000", "111254.302000", "111254.305000", "111254.307000", "111254.310000", "111254.312000", "111334.263000", "111334.266000", "111334.269000", "111334.271000", "111334.274000", "111334.276000", "111334.279000", "111334.281000", "111334.284000", "111334.286000", "111334.289000", "111334.291000", "111334.294000", "111334.296000", "111334.299000", "111334.301000", "111334.304000", "111334.306000", "111334.309000", "111334.311000", "111414.265000", "111414.267000", "111414.270000", "111414.272000", "111414.275000", "111414.277000", "111414.280000", "111414.282000", "111414.285000", "111414.287000", "111414.290000", "111414.292000", "111414.295000", "111414.297000", "111414.300000", "111414.303000", "111414.305000", "111414.308000", "111414.310000", "111414.313000", "111451.031000", "111451.034000", "111451.037000", "111451.039000", "111451.042000", "111451.045000", "111451.047000", "111451.050000", "111451.052000", "111451.055000", "111451.057000", "111451.060000", "111451.070000", "111451.073000", "111451.077000", "111451.080000", "111451.083000", "111451.086000", "111451.089000"],
