{
  "AcquisitionMatrixPE": 64,
  "AcquisitionNumber": 1,
  "AcquisitionTime": "11:34:5.020000",
  "BandwidthPerPixelPhaseEncode": 25.202,
  "BaseResolution": 64,
  "BodyPartExamined": "BRAIN",
  "ConsistencyInfo": "N4_VD13C_LATEST_20121124",
  "ConversionSoftware": "dcm2niix",
  "ConversionSoftwareVersion": "v1.0.20201102",
  "DerivedVendorReportedEchoSpacing": 0.00061999,
  "DeviceSerialNumber": "45758",
  "DwellTime": 4.3e-06,
  "EchoTime": 0.03,
  "EchoTrainLength": 64,
  "EffectiveEchoSpacing": 0.00061999,
  "FlipAngle": 90,
  "ImageOrientationPatientDICOM": [0.99787, -0.0211641, 0.0617127, 0.0243874, 0.998352, -0.0519547],
  "ImageType": [
    "ORIGINAL",
    "PRIMARY",
    "M",
    "ND",
    "MOSAIC"
],
  "ImagingFrequency": 123.2,
  "InPlanePhaseEncodingDirectionDICOM": "ROW",
  "InstitutionAddress": "Street StreetNo,City /652E4B/,District,KR,ZIP",
  "InstitutionName": "DGMIF",
  "InstitutionalDepartmentName": "Department",
  "MRAcquisitionType": "2D",
  "MagneticFieldStrength": 3,
  "Manufacturer": "Siemens",
  "ManufacturersModelName": "Skyra",
  "Modality": "MR",
  "PartialFourier": 1,
  "PatientPosition": "HFS",
  "PercentPhaseFOV": 100,
  "PercentSampling": 100,
  "PhaseEncodingDirection": "i",
  "PhaseEncodingSteps": 64,
  "PhaseResolution": 1,
  "PixelBandwidth": 1815,
  "ProcedureStepDescription": "DGMIF^DGIST_Jeon",
  "ProtocolName": "EPI_DGIST_1",
  "PulseSequenceDetails": "%SiemensSeq%\\ep2d_bold",
  "ReceiveCoilActiveElements": "HC1-7",
  "ReceiveCoilName": "HeadNeck_64",
  "ReconMatrixPE": 64,
  "RepetitionTime": 2,
  "SAR": 0.104537,
  "ScanOptions": "FS",
  "ScanningSequence": "EP",
  "SequenceName": "*epfid2d1_64",
  "SequenceVariant": "SK",
  "SeriesDescription": "EPI_DGIST_1",
  "SeriesNumber": 2,
  "ShimSetting": [-9713, -13662, -8221, 248, -429, -506, -322, -279],
  "SliceThickness": 4,
  "SliceTiming": [0.99, 0, 1.055, 0.0675, 1.1225, 0.1325, 1.1875, 0.1975, 1.255, 0.265, 1.32, 0.33, 1.385, 0.3975, 1.4525, 0.4625, 1.5175, 0.5275, 1.585, 0.595, 1.65, 0.66, 1.715, 0.725, 1.7825, 0.7925, 1.8475, 0.8575, 1.915, 0.925],
  "SoftwareVersions": "syngo MR D13C",
  "SpacingBetweenSlices": 4.8,
  "StationName": "AWP45758",
  "TaskName": "asrt",
  "TotalReadoutTime": 0.0390594,
  "TxRefAmp": 343.824,
  "dcmmeta_affine": [
    [-2.9936087131500244, 0.07316222041845322, 0.2904549241065979, 87.2884521484375],
    [0.06349220871925354, 2.9950549602508545, -0.2560752034187317, -114.00962829589844],
    [0.18513821065425873, 0.15586401522159576, 4.784356117248535, -78.91451263427734],
    [0.0, 0.0, 0.0, 1.0]
],
  "dcmmeta_reorient_transform": [
    [0.0, -1.0, 0.0, 63.0],
    [1.0, 0.0, 0.0, 0.0],
    [0.0, 0.0, 1.0, 0.0],
    [0.0, 0.0, 0.0, 1.0]
],
  "dcmmeta_shape": [64, 64, 30, 514],
  "dcmmeta_slice_dim": 2,
  "dcmmeta_version": 0.6,
  "global": {
    "const": {
      "AcquisitionMatrix": [0, 64, 64, 0],
      "AngioFlag": "N",
      "BitsAllocated": 16,
      "BitsStored": 12,
      "BodyPartExamined": "BRAIN",
      "Columns": 384,
      "EchoNumbers": 1,
      "EchoTime": 30.0,
      "EchoTrainLength": 64,
      "FlipAngle": 90.0,
      "HighBit": 11,
      "ImageOrientationPatient": [0.99786954058406, -0.021164070532, 0.0617127384993, 0.02438740563256, 0.99835162470954, -0.0519546714583],
      "ImagePositionPatient": [-582.58100737606, -543.72885711875, -73.778948922731],
      "ImageType": [
        "ORIGINAL",
        "PRIMARY",
        "M",
        "ND",
        "MOSAIC"
],
      "ImagedNucleus": "1H",
      "ImagingFrequency": 123.200138,
      "InPlanePhaseEncodingDirection": "ROW",
      "MRAcquisitionType": "2D",
      "MagneticFieldStrength": 3.0,
      "Manufacturer": "SIEMENS",
      "ManufacturerModelName": "Skyra",
      "Modality": "MR",
      "NumberOfAverages": 1.0,
      "NumberOfPhaseEncodingSteps": 64,
      "PercentPhaseFieldOfView": 100.0,
      "PercentSampling": 100.0,
      "PerformedProcedureStepStartTime": "112308.162000",
      "PhotometricInterpretation": "MONOCHROME2",
      "PixelBandwidth": 1815.0,
      "PixelRepresentation": 0,
      "PixelSpacing": [3.0, 3.0],
      "ProtocolName": "EPI_DGIST_1",
      "RepetitionTime": 2000.0,
      "Rows": 384,
      "SAR": 0.10453736462914,
      "SamplesPerPixel": 1,
      "ScanOptions": "FS",
      "ScanningSequence": "EP",
      "SequenceName": "*epfid2d1_64",
      "SequenceVariant": "SK",
      "SeriesDescription": "EPI_DGIST_1",
      "SeriesNumber": 2,
      "SeriesTime": "113447.222000",
      "SliceLocation": -67.293063242432,
      "SliceThickness": 4.0,
      "SmallestImagePixelValue": 0,
      "SoftwareVersions": "syngo MR D13C",
      "SpacingBetweenSlices": 4.8000000450189,
      "SpecificCharacterSet": "ISO_IR 100",
      "StudyID": "1",
      "StudyTime": "112308.092000",
      "TimeOfLastCalibration": ["123723.000000", "123723.000000"],
      "TransmitCoilName": "Body",
      "VariableFlipAngleFlag": "N",
      "WindowCenterWidthExplanation": "Algo1",
      "dBdt": 0.0},
    "slices": {}
  },
  "time": {
    "samples": {
      "AcquisitionNumber": [1, 2, 3, 4, 5, 6, 7, 8, 9, 10, 11, 12, 13, 14, 15, 16, 17, 18, 19, 20, 21, 22, 23, 24, 25, 26, 27, 28, 29, 30, 31, 32, 33, 34, 35, 36, 37, 38, 39, 40, 41, 42, 43, 44, 45, 46, 47, 48, 49, 50, 51, 52, 53, 54, 55, 56, 57, 58, 59, 60, 61, 62, 63, 64, 65, 66, 67, 68, 69, 70, 71, 72, 73, 74, 75, 76, 77, 78, 79, 80, 81, 82, 83, 84, 85, 86, 87, 88, 89, 90, 91, 92, 93, 94, 95, 96, 97, 98, 99, 100, 101, 102, 103, 104, 105, 106, 107, 108, 109, 110, 111, 112, 113, 114, 115, 116, 117, 118, 119, 120, 121, 122, 123, 124, 125, 126, 127, 128, 129, 130, 131, 132, 133, 134, 135, 136, 137, 138, 139, 140, 141, 142, 143, 144, 145, 146, 147, 148, 149, 150, 151, 152, 153, 154, 155, 156, 157, 158, 159, 160, 161, 162, 163, 164, 165, 166, 167, 168, 169, 170, 171, 172, 173, 174, 175, 176, 177, 178, 179, 180, 181, 182, 183, 184, 185, 186, 187, 188, 189, 190, 191, 192, 193, 194, 195, 196, 197, 198, 199, 200, 201, 202, 203, 204, 205, 206, 207, 208, 209, 210, 211, 212, 213, 214, 215, 216, 217, 218, 219, 220, 221, 222, 223, 224, 225, 226, 227, 228, 229, 230, 231, 232, 233, 234, 235, 236, 237, 238, 239, 240, 241, 242, 243, 244, 245, 246, 247, 248, 249, 250, 251, 252, 253, 254, 255, 256, 257, 258, 259, 260, 261, 262, 263, 264, 265, 266, 267, 268, 269, 270, 271, 272, 273, 274, 275, 276, 277, 278, 279, 280, 281, 282, 283, 284, 285, 286, 287, 288, 289, 290, 291, 292, 293, 294, 295, 296, 297, 298, 299, 300, 301, 302, 303, 304, 305, 306, 307, 308, 309, 310, 311, 312, 313, 314, 315, 316, 317, 318, 319, 320, 321, 322, 323, 324, 325, 326, 327, 328, 329, 330, 331, 332, 333, 334, 335, 336, 337, 338, 339, 340, 341, 342, 343, 344, 345, 346, 347, 348, 349, 350, 351, 352, 353, 354, 355, 356, 357, 358, 359, 360, 361, 362, 363, 364, 365, 366, 367, 368, 369, 370, 371, 372, 373, 374, 375, 376, 377, 378, 379, 380, 381, 382, 383, 384, 385, 386, 387, 388, 389, 390, 391, 392, 393, 394, 395, 396, 397, 398, 399, 400, 401, 402, 403, 404, 405, 406, 407, 408, 409, 410, 411, 412, 413, 414, 415, 416, 417, 418, 419, 420, 421, 422, 423, 424, 425, 426, 427, 428, 429, 430, 431, 432, 433, 434, 435, 436, 437, 438, 439, 440, 441, 442, 443, 444, 445, 446, 447, 448, 449, 450, 451, 452, 453, 454, 455, 456, 457, 458, 459, 460, 461, 462, 463, 464, 465, 466, 467, 468, 469, 470, 471, 472, 473, 474, 475, 476, 477, 478, 479, 480, 481, 482, 483, 484, 485, 486, 487, 488, 489, 490, 491, 492, 493, 494, 495, 496, 497, 498, 499, 500, 501, 502, 503, 504, 505, 506, 507, 508, 509, 510, 511, 512, 513, 514],
      "AcquisitionTime": ["113405.020000", "113407.020000", "113409.020000", "113411.020000", "113413.020000", "113415.020000", "113417.020000", "113419.020000", "113421.020000", "113423.020000", "113425.020000", "113427.020000", "113429.020000", "113431.020000", "113433.020000", "113435.020000", "113437.020000", "113439.020000", "113441.020000", "113443.020000", "113445.020000", "113447.020000", "113449.020000", "113451.020000", "113453.020000", "113455.020000", "113457.020000", "113459.020000", "113501.020000", "113503.020000", "113505.020000", "113507.020000", "113509.020000", "113511.020000", "113513.020000", "113515.020000", "113517.020000", "113519.020000", "113521.020000", "113523.020000", "113525.020000", "113527.020000", "113529.020000", "113531.020000", "113533.020000", "113535.020000", "113537.020000", "113539.020000", "113541.020000", "113543.020000", "113545.020000", "113547.020000", "113549.020000", "113551.020000", "113553.020000", "113555.020000", "113557.020000", "113559.020000", "113601.020000", "113603.020000", "113605.020000", "113607.020000", "113609.020000", "113611.020000", "113613.020000", "113615.020000", "113617.020000", "113619.020000", "113621.020000", "113623.020000", "113625.020000", "113627.020000", "113629.020000", "113631.020000", "113633.020000", "113635.020000", "113637.020000", "113639.020000", "113641.020000", "113643.020000", "113645.020000", "113647.020000", "113649.020000", "113651.020000", "113653.020000", "113655.020000", "113657.020000", "113659.020000", "113701.020000", "113703.020000", "113705.020000", "113707.020000", "113709.020000", "113711.020000", "113713.020000", "113715.020000", "113717.020000", "113719.020000", "113721.020000", "113723.020000", "113725.020000", "113727.020000", "113729.020000", "113731.020000", "113733.020000", "113735.020000", "113737.022500", "113739.022500", "113741.022500", "113743.022500", "113745.022500", "113747.022500", "113749.022500", "113751.022500", "113753.022500", "113755.022500", "113757.022500", "113759.022500", "113801.022500", "113803.022500", "113805.022500", "113807.022500", "113809.022500", "113811.022500", "113813.022500", "113815.022500", "113817.022500", "113819.022500", "113821.022500", "113823.022500", "113825.022500", "113827.022500", "113829.022500", "113831.022500", "113833.022500", "113835.022500", "113837.022500", "113839.022500", "113841.022500", "113843.022500", "113845.022500", "113847.022500", "113849.022500", "113851.022500", "113853.022500", "113855.022500", "113857.022500", "113859.022500", "113901.022500", "113903.022500", "113905.022500", "113907.022500", "113909.022500", "113911.022500", "113913.022500", "113915.022500", "113917.022500", "113919.022500", "113921.022500", "113923.022500", "113925.022500", "113927.022500", "113929.022500", "113931.022500", "113933.022500", "113935.022500", "113937.022500", "113939.022500", "113941.022500", "113943.022500", "113945.022500", "113947.022500", "113949.022500", "113951.022500", "113953.022500", "113955.022500", "113957.022500", "113959.022500", "114001.022500", "114003.022500", "114005.022500", "114007.022500", "114009.022500", "114011.022500", "114013.022500", "114015.022500", "114017.022500", "114019.022500", "114021.022500", "114023.022500", "114025.022500", "114027.022500", "114029.022500", "114031.022500", "114033.022500", "114035.022500", "114037.022500", "114039.022500", "114041.022500", "114043.022500", "114045.022500", "114047.022500", "114049.022500", "114051.022500", "114053.022500", "114055.022500", "114057.022500", "114059.022500", "114101.022500", "114103.022500", "114105.022500", "114107.022500", "114109.022500", "114111.022500", "114113.022500", "114115.022500", "114117.022500", "114119.022500", "114121.022500", "114123.022500", "114125.022500", "114127.022500", "114129.022500", "114131.022500", "114133.022500", "114135.022500", "114137.022500", "114139.022500", "114141.022500", "114143.022500", "114145.022500", "114147.022500", "114149.022500", "114151.022500", "114153.022500", "114155.022500", "114157.022500", "114159.022500", "114201.022500", "114203.022500", "114205.022500", "114207.022500", "114209.022500", "114211.022500", "114213.022500", "114215.022500", "114217.022500", "114219.022500", "114221.022500", "114223.022500", "114225.022500", "114227.022500", "114229.022500", "114231.022500", "114233.022500", "114235.022500", "114237.022500", "114239.022500", "114241.022500", "114243.022500", "114245.022500", "114247.022500", "114249.022500", "114251.022500", "114253.022500", "114255.022500", "114257.022500", "114259.022500", "114301.022500", "114303.022500", "114305.022500", "114307.022500", "114309.022500", "114311.022500", "114313.022500", "114315.022500", "114317.022500", "114319.022500", "114321.022500", "114323.022500", "114325.022500", "114327.022500", "114329.022500", "114331.022500", "114333.022500", "114335.022500", "114337.022500", "114339.022500", "114341.022500", "114343.022500", "114345.022500", "114347.022500", "114349.022500", "114351.022500", "114353.022500", "114355.022500", "114357.022500", "114359.022500", "114401.022500", "114403.022500", "114405.022500", "114407.022500", "114409.022500", "114411.022500", "114413.022500", "114415.022500", "114417.022500", "114419.022500", "114421.022500", "114423.022500", "114425.022500", "114427.022500", "114429.022500", "114431.022500", "114433.022500", "114435.022500", "114437.022500", "114439.022500", "114441.022500", "114443.022500", "114445.022500", "114447.022500", "114449.022500", "114451.022500", "114453.022500", "114455.022500", "114457.022500", "114459.022500", "114501.022500", "114503.022500", "114505.022500", "114507.022500", "114509.022500", "114511.022500", "114513.022500", "114515.022500", "114517.022500", "114519.022500", "114521.022500", "114523.022500", "114525.022500", "114527.022500", "114529.022500", "114531.022500", "114533.022500", "114535.022500", "114537.022500", "114539.022500", "114541.022500", "114543.022500", "114545.022500", "114547.022500", "114549.022500", "114551.022500", "114553.022500", "114555.022500", "114557.025000", "114559.025000", "114601.025000", "114603.025000", "114605.025000", "114607.025000", "114609.025000", "114611.025000", "114613.025000", "114615.025000", "114617.025000", "114619.025000", "114621.025000", "114623.025000", "114625.025000", "114627.025000", "114629.025000", "114631.025000", "114633.025000", "114635.025000", "114637.025000", "114639.025000", "114641.025000", "114643.025000", "114645.025000", "114647.025000", "114649.025000", "114651.025000", "114653.025000", "114655.025000", "114657.025000", "114659.025000", "114701.025000", "114703.025000", "114705.025000", "114707.025000", "114709.025000", "114711.025000", "114713.025000", "114715.025000", "114717.025000", "114719.025000", "114721.025000", "114723.025000", "114725.025000", "114727.025000", "114729.025000", "114731.025000", "114733.025000", "114735.025000", "114737.025000", "114739.025000", "114741.025000", "114743.025000", "114745.025000", "114747.025000", "114749.025000", "114751.025000", "114753.025000", "114755.025000", "114757.025000", "114759.025000", "114801.025000", "114803.025000", "114805.025000", "114807.025000", "114809.025000", "114811.025000", "114813.025000", "114815.025000", "114817.025000", "114819.025000", "114821.025000", "114823.025000", "114825.025000", "114827.025000", "114829.025000", "114831.025000", "114833.025000", "114835.025000", "114837.025000", "114839.025000", "114841.025000", "114843.025000", "114845.025000", "114847.025000", "114849.025000", "114851.025000", "114853.025000", "114855.025000", "114857.025000", "114859.025000", "114901.025000", "114903.025000", "114905.025000", "114907.025000", "114909.025000", "114911.025000", "114913.025000", "114915.025000", "114917.025000", "114919.025000", "114921.025000", "114923.025000", "114925.025000", "114927.025000", "114929.025000", "114931.025000", "114933.025000", "114935.025000", "114937.025000", "114939.025000", "114941.025000", "114943.025000", "114945.025000", "114947.025000", "114949.025000", "114951.025000", "114953.025000", "114955.025000", "114957.025000", "114959.025000", "115001.025000", "115003.025000", "115005.025000", "115007.025000", "115009.025000", "115011.025000", "115013.025000", "115015.025000", "115017.025000", "115019.025000", "115021.025000", "115023.025000", "115025.025000", "115027.025000", "115029.025000", "115031.025000", "115033.025000", "115035.025000", "115037.025000", "115039.025000", "115041.025000", "115043.025000", "115045.025000", "115047.025000", "115049.025000", "115051.025000", "115053.025000", "115055.025000", "115057.025000", "115059.025000", "115101.025000", "115103.025000", "115105.025000", "115107.025000", "115109.025000", "115111.025000"],
      "ContentTime": ["113447.225000", "113447.240000", "113447.242000", "113447.244000", "113447.245000", "113447.247000", "113447.249000", "113447.251000", "113447.253000", "113447.255000", "113447.257000", "113447.259000", "113447.261000", "113447.263000", "113447.265000", "113447.267000", "113447.269000", "113447.271000", "113447.273000", "113447.275000", "113447.277000", "113527.220000", "113527.222000", "113527.224000", "113527.226000", "113527.228000", "113527.230000", "113527.232000", "113527.234000", "113527.236000", "113527.238000", "113527.240000", "113527.242000", "113527.244000", "113527.246000", "113527.248000", "113527.250000", "113527.252000", "113527.254000", "113527.256000", "113527.258000", "113607.220000", "113607.223000", "113607.225000", "113607.227000", "113607.229000", "113607.231000", "113607.233000", "113607.235000", "113607.237000", "113607.239000", "113607.241000", "113607.243000", "113607.244000", "113607.246000", "113607.248000", "113607.250000", "113607.252000", "113607.254000", "113607.256000", "113607.258000", "113647.220000", "113647.223000", "113647.225000", "113647.227000", "113647.229000", "113647.231000", "113647.233000", "113647.234000", "113647.236000", "113647.238000", "113647.240000", "113647.242000", "113647.244000", "113647.246000", "113647.248000", "113647.250000", "113647.252000", "113647.254000", "113647.256000", "113647.258000", "113727.220000", "113727.224000", "113727.226000", "113727.228000", "113727.230000", "113727.233000", "113727.234000", "113727.236000", "113727.238000", "113727.240000", "113727.242000", "113727.244000", "113727.246000", "113727.248000", "113727.250000", "113727.252000", "113727.254000", "113727.256000", "113727.258000", "113727.260000", "113807.219000", "113807.222000", "113807.224000", "113807.226000", "113807.227000", "113807.230000", "113807.232000", "113807.233000", "113807.235000", "113807.237000", "113807.239000", "113807.241000", "113807.243000", "113807.245000", "113807.247000", "113807.249000", "113807.251000", "113807.253000", "113807.255000", "113807.257000", "113847.220000", "113847.223000", "113847.225000", "113847.226000", "113847.228000", "113847.231000", "113847.233000", "113847.238000", "113847.240000", "113847.242000", "113847.244000", "113847.245000", "113847.247000", "113847.250000", "113847.252000", "113847.253000", "113847.255000", "113847.258000", "113847.259000", "113847.261000", "113927.220000", "113927.222000", "113927.224000", "113927.226000", "113927.228000", "113927.230000", "113927.232000", "113927.234000", "113927.236000", "113927.238000", "113927.240000", "113927.242000", "113927.244000", "113927.246000", "113927.248000", "113927.250000", "113927.252000", "113927.254000", "113927.256000", "113927.257000", "114007.219000", "114007.221000", "114007.223000", "114007.225000", "114007.227000", "114007.229000", "114007.231000", "114007.233000", "114007.235000", "114007.237000", "114007.239000", "114007.241000", "114007.243000", "114007.258000", "114007.260000", "114007.262000", "114007.264000", "114007.266000", "114007.268000", "114007.270000", "114047.220000", "114047.223000", "114047.225000", "114047.226000", "114047.228000", "114047.231000", "114047.232000", "114047.234000", "114047.236000", "114047.239000", "114047.241000", "114047.243000", "114047.244000", "114047.247000", "114047.249000", "114047.250000", "114047.252000", "114047.254000", "114047.256000", "114047.258000", "114127.220000", "114127.223000", "114127.225000", "114127.227000", "114127.229000", "114127.231000", "114127.233000", "114127.234000", "114127.236000", "114127.238000", "114127.240000", "114127.242000", "114127.244000", "114127.246000", "114127.248000", "114127.250000", "114127.252000", "114127.254000", "114127.256000", "114127.258000", "114147.220000", "114147.223000", "114147.225000", "114147.227000", "114147.228000", "114147.231000", "114147.233000", "114147.234000", "114147.236000", "114147.239000", "114227.219000", "114227.221000", "114227.223000", "114227.226000", "114227.228000", "114227.230000", "114227.232000", "114227.234000", "114227.236000", "114227.238000", "114227.240000", "114227.242000", "114227.243000", "114227.245000", "114227.247000", "114227.249000", "114227.251000", "114227.253000", "114227.255000", "114227.257000", "114307.220000", "114307.222000", "114307.224000", "114307.226000", "114307.229000", "114307.230000", "114307.232000", "114307.235000", "114307.237000", "114307.239000", "114307.241000", "114307.243000", "114307.245000", "114307.247000", "114307.249000", "114307.251000", "114307.253000", "114307.255000", "114307.257000", "114307.259000", "114347.220000", "114347.222000", "114347.224000", "114347.226000", "114347.228000", "114347.230000", "114347.232000", "114347.234000", "114347.236000", "114347.238000", "114347.240000", "114347.242000", "114347.244000", "114347.246000", "114347.248000", "114347.250000", "114347.252000", "114347.254000", "114347.256000", "114347.258000", "114427.220000", "114427.222000", "114427.224000", "114427.227000", "114427.228000", "114427.230000", "114427.232000", "114427.235000", "114427.236000", "114427.238000", "114427.240000", "114427.242000", "114427.244000", "114427.246000", "114427.248000", "114427.251000", "114427.253000", "114427.254000", "114427.256000", "114427.258000", "114507.219000", "114507.221000", "114507.223000", "114507.225000", "114507.227000", "114507.229000", "114507.231000", "114507.233000", "114507.235000", "114507.237000", "114507.239000", "114507.241000", "114507.243000", "114507.245000", "114507.247000", "114507.249000", "114507.251000", "114507.252000", "114507.254000", "114507.256000", "114547.220000", "114547.222000", "114547.224000", "114547.226000", "114547.228000", "114547.230000", "114547.232000", "114547.241000", "114547.243000", "114547.245000", "114547.247000", "114547.249000", "114547.251000", "114547.253000", "114547.255000", "114547.257000", "114547.259000", "114547.261000", "114547.263000", "114547.265000", "114627.220000", "114627.222000", "114627.224000", "114627.227000", "114627.229000", "114627.231000", "114627.232000", "114627.235000", "114627.236000", "114627.238000", "114627.240000", "114627.243000", "114627.245000", "114627.246000", "114627.248000", "114627.250000", "114627.252000", "114627.254000", "114627.256000", "114627.258000", "114707.219000", "114707.221000", "114707.223000", "114707.225000", "114707.227000", "114707.229000", "114707.231000", "114707.233000", "114707.235000", "114707.237000", "114707.239000", "114707.241000", "114707.243000", "114707.245000", "114707.247000", "114707.249000", "114707.251000", "114707.253000", "114707.255000", "114707.257000", "114747.220000", "114747.222000", "114747.224000", "114747.227000", "114747.229000", "114747.231000", "114747.232000", "114747.235000", "114747.236000", "114747.238000", "114747.240000", "114747.242000", "114747.244000", "114747.246000", "114747.248000", "114747.250000", "114747.252000", "114747.254000", "114747.256000", "114747.259000", "114827.220000", "114827.222000", "114827.224000", "114827.227000", "114827.229000", "114827.231000", "114827.232000", "114827.235000", "114827.237000", "114827.238000", "114827.240000", "114827.243000", "114827.244000", "114827.246000", "114827.261000", "114827.263000", "114827.265000", "114827.267000", "114827.269000", "114827.271000", "114907.220000", "114907.222000", "114907.224000", "114907.227000", "114907.228000", "114907.230000", "114907.232000", "114907.234000", "114907.236000", "114907.238000", "114907.240000", "114907.243000", "114907.245000", "114907.246000", "114907.248000", "114907.251000", "114907.252000", "114907.254000", "114907.256000", "114907.258000", "114947.220000", "114947.222000", "114947.224000", "114947.227000", "114947.229000", "114947.230000", "114947.232000", "114947.234000", "114947.236000", "114947.238000", "114947.240000", "114947.242000", "114947.244000", "114947.246000", "114947.248000", "114947.251000", "114947.253000", "114947.255000", "114947.256000", "114947.259000", "115027.220000", "115027.222000", "115027.224000", "115027.226000", "115027.228000", "115027.230000", "115027.232000", "115027.234000", "115027.236000", "115027.238000", "115027.240000", "115027.242000", "115027.244000", "115027.246000", "115027.248000", "115027.250000", "115027.252000", "115027.254000", "115027.256000", "115027.258000", "115107.220000", "115107.222000", "115107.224000", "115107.227000", "115107.229000", "115107.231000", "115107.232000", "115107.235000", "115107.237000", "115107.239000", "115107.241000", "115107.243000", "115107.245000", "115107.246000", "115107.248000", "115107.251000", "115107.252000", "115107.254000", "115107.256000", "115107.258000", "115112.576000", "115112.579000", "115112.581000"],
