{
  "AcquisitionMatrixPE": 64,
  "AcquisitionNumber": 1,
  "AcquisitionTime": "12:07:58.305000",
  "BandwidthPerPixelPhaseEncode": 25.202,
  "BaseResolution": 64,
  "BodyPartExamined": "BRAIN",
  "ConsistencyInfo": "N4_VD13C_LATEST_20121124",
  "ConversionSoftware": "dcm2niix",
  "ConversionSoftwareVersion": "v1.0.20201102",
  "DerivedVendorReportedEchoSpacing": 0.00061999,
  "DeviceSerialNumber": "45758",
  "DwellTime": 4.3e-06,
  "EchoTime": 0.03,
  "EchoTrainLength": 64,
  "EffectiveEchoSpacing": 0.00061999,
  "FlipAngle": 90,
  "ImageOrientationPatientDICOM": [0.99787, -0.0211641, 0.0617127, 0.0243874, 0.998352, -0.0519547],
  "ImageType": [
    "ORIGINAL",
    "PRIMARY",
    "M",
    "ND",
    "MOSAIC"
],
  "ImagingFrequency": 123.2,
  "InPlanePhaseEncodingDirectionDICOM": "ROW",
  "InstitutionAddress": "Street StreetNo,City /652E4B/,District,KR,ZIP",
  "InstitutionName": "DGMIF",
  "InstitutionalDepartmentName": "Department",
  "MRAcquisitionType": "2D",
  "MagneticFieldStrength": 3,
  "Manufacturer": "Siemens",
  "ManufacturersModelName": "Skyra",
  "Modality": "MR",
  "PartialFourier": 1,
  "PatientPosition": "HFS",
  "PercentPhaseFOV": 100,
  "PercentSampling": 100,
  "PhaseEncodingDirection": "i",
  "PhaseEncodingSteps": 64,
  "PhaseResolution": 1,
  "PixelBandwidth": 1815,
  "ProcedureStepDescription": "DGMIF^DGIST_Jeon",
  "ProtocolName": "EPI_DGIST_3",
  "PulseSequenceDetails": "%SiemensSeq%\\ep2d_bold",
  "ReceiveCoilActiveElements": "HC1-7",
  "ReceiveCoilName": "HeadNeck_64",
  "ReconMatrixPE": 64,
  "RepetitionTime": 2,
  "SAR": 0.104537,
  "ScanOptions": "FS",
  "ScanningSequence": "EP",
  "SequenceName": "*epfid2d1_64",
  "SequenceVariant": "SK",
  "SeriesDescription": "EPI_DGIST_3",
  "SeriesNumber": 4,
  "ShimSetting": [-9713, -13662, -8221, 248, -429, -506, -322, -279],
  "SliceThickness": 4,
  "SliceTiming": [0.99, 0, 1.055, 0.065, 1.12, 0.1325, 1.1875, 0.1975, 1.2525, 0.2625, 1.32, 0.33, 1.385, 0.395, 1.45, 0.46, 1.5175, 0.5275, 1.5825, 0.5925, 1.65, 0.66, 1.715, 0.725, 1.78, 0.79, 1.8475, 0.8575, 1.9125, 0.9225],
  "SoftwareVersions": "syngo MR D13C",
  "SpacingBetweenSlices": 4.8,
  "StationName": "AWP45758",
  "TaskName": "asrt",
  "TotalReadoutTime": 0.0390594,
  "TxRefAmp": 343.824,
  "dcmmeta_affine": [
    [-2.9936087131500244, 0.07316222041845322, 0.2904549241065979, 87.2884521484375],
    [0.06349220871925354, 2.9950549602508545, -0.2560752034187317, -114.00962829589844],
    [0.18513821065425873, 0.15586401522159576, 4.784356117248535, -78.91451263427734],
    [0.0, 0.0, 0.0, 1.0]
],
  "dcmmeta_reorient_transform": [
    [0.0, -1.0, 0.0, 63.0],
    [1.0, 0.0, 0.0, 0.0],
    [0.0, 0.0, 1.0, 0.0],
    [0.0, 0.0, 0.0, 1.0]
],
  "dcmmeta_shape": [64, 64, 30, 364],
  "dcmmeta_slice_dim": 2,
  "dcmmeta_version": 0.6,
  "global": {
    "const": {
      "AcquisitionMatrix": [0, 64, 64, 0],
      "AngioFlag": "N",
      "BitsAllocated": 16,
      "BitsStored": 12,
      "BodyPartExamined": "BRAIN",
      "Columns": 384,
      "EchoNumbers": 1,
      "EchoTime": 30.0,
      "EchoTrainLength": 64,
      "FlipAngle": 90.0,
      "HighBit": 11,
      "ImageOrientationPatient": [0.99786954058406, -0.021164070532, 0.0617127384993, 0.02438740563256, 0.99835162470954, -0.0519546714583],
      "ImagePositionPatient": [-582.58100737606, -543.72885711875, -73.778948922731],
      "ImageType": [
        "ORIGINAL",
        "PRIMARY",
        "M",
        "ND",
        "MOSAIC"
],
      "ImagedNucleus": "1H",
      "ImagingFrequency": 123.200191,
      "InPlanePhaseEncodingDirection": "ROW",
      "MRAcquisitionType": "2D",
      "MagneticFieldStrength": 3.0,
      "Manufacturer": "SIEMENS",
      "ManufacturerModelName": "Skyra",
      "Modality": "MR",
      "NumberOfAverages": 1.0,
      "NumberOfPhaseEncodingSteps": 64,
      "PercentPhaseFieldOfView": 100.0,
      "PercentSampling": 100.0,
      "PerformedProcedureStepStartTime": "112308.162000",
      "PhotometricInterpretation": "MONOCHROME2",
      "PixelBandwidth": 1815.0,
      "PixelRepresentation": 0,
      "PixelSpacing": [3.0, 3.0],
      "ProtocolName": "EPI_DGIST_3",
      "RepetitionTime": 2000.0,
      "Rows": 384,
      "SAR": 0.10453736462914,
      "SamplesPerPixel": 1,
      "ScanOptions": "FS",
      "ScanningSequence": "EP",
      "SequenceName": "*epfid2d1_64",
      "SequenceVariant": "SK",
      "SeriesDescription": "EPI_DGIST_3",
      "SeriesNumber": 4,
      "SeriesTime": "120840.030000",
      "SliceLocation": -67.293063242432,
      "SliceThickness": 4.0,
      "SmallestImagePixelValue": 0,
      "SoftwareVersions": "syngo MR D13C",
      "SpacingBetweenSlices": 4.8000000450189,
      "SpecificCharacterSet": "ISO_IR 100",
      "StudyID": "1",
      "StudyTime": "112308.092000",
      "TimeOfLastCalibration": ["123723.000000", "123723.000000"],
      "TransmitCoilName": "Body",
      "VariableFlipAngleFlag": "N",
      "WindowCenterWidthExplanation": "Algo1",
      "dBdt": 0.0},
    "slices": {}
  },
  "time": {
    "samples": {
      "AcquisitionNumber": [1, 2, 3, 4, 5, 6, 7, 8, 9, 10, 11, 12, 13, 14, 15, 16, 17, 18, 19, 20, 21, 22, 23, 24, 25, 26, 27, 28, 29, 30, 31, 32, 33, 34, 35, 36, 37, 38, 39, 40, 41, 42, 43, 44, 45, 46, 47, 48, 49, 50, 51, 52, 53, 54, 55, 56, 57, 58, 59, 60, 61, 62, 63, 64, 65, 66, 67, 68, 69, 70, 71, 72, 73, 74, 75, 76, 77, 78, 79, 80, 81, 82, 83, 84, 85, 86, 87, 88, 89, 90, 91, 92, 93, 94, 95, 96, 97, 98, 99, 100, 101, 102, 103, 104, 105, 106, 107, 108, 109, 110, 111, 112, 113, 114, 115, 116, 117, 118, 119, 120, 121, 122, 123, 124, 125, 126, 127, 128, 129, 130, 131, 132, 133, 134, 135, 136, 137, 138, 139, 140, 141, 142, 143, 144, 145, 146, 147, 148, 149, 150, 151, 152, 153, 154, 155, 156, 157, 158, 159, 160, 161, 162, 163, 164, 165, 166, 167, 168, 169, 170, 171, 172, 173, 174, 175, 176, 177, 178, 179, 180, 181, 182, 183, 184, 185, 186, 187, 188, 189, 190, 191, 192, 193, 194, 195, 196, 197, 198, 199, 200, 201, 202, 203, 204, 205, 206, 207, 208, 209, 210, 211, 212, 213, 214, 215, 216, 217, 218, 219, 220, 221, 222, 223, 224, 225, 226, 227, 228, 229, 230, 231, 232, 233, 234, 235, 236, 237, 238, 239, 240, 241, 242, 243, 244, 245, 246, 247, 248, 249, 250, 251, 252, 253, 254, 255, 256, 257, 258, 259, 260, 261, 262, 263, 264, 265, 266, 267, 268, 269, 270, 271, 272, 273, 274, 275, 276, 277, 278, 279, 280, 281, 282, 283, 284, 285, 286, 287, 288, 289, 290, 291, 292, 293, 294, 295, 296, 297, 298, 299, 300, 301, 302, 303, 304, 305, 306, 307, 308, 309, 310, 311, 312, 313, 314, 315, 316, 317, 318, 319, 320, 321, 322, 323, 324, 325, 326, 327, 328, 329, 330, 331, 332, 333, 334, 335, 336, 337, 338, 339, 340, 341, 342, 343, 344, 345, 346, 347, 348, 349, 350, 351, 352, 353, 354, 355, 356, 357, 358, 359, 360, 361, 362, 363, 364],
      "AcquisitionTime": ["120758.305000", "120800.305000", "120802.305000", "120804.305000", "120806.305000", "120808.305000", "120810.305000", "120812.305000", "120814.305000", "120816.305000", "120818.305000", "120820.305000", "120822.305000", "120824.305000", "120826.305000", "120828.305000", "120830.305000", "120832.305000", "120834.305000", "120836.305000", "120838.305000", "120840.305000", "120842.305000", "120844.305000", "120846.305000", "120848.305000", "120850.305000", "120852.305000", "120854.305000", "120856.305000", "120858.305000", "120900.305000", "120902.305000", "120904.305000", "120906.305000", "120908.305000", "120910.305000", "120912.305000", "120914.305000", "120916.305000", "120918.305000", "120920.305000", "120922.305000", "120924.305000", "120926.305000", "120928.305000", "120930.305000", "120932.305000", "120934.305000", "120936.305000", "120938.305000", "120940.305000", "120942.305000", "120944.305000", "120946.305000", "120948.305000", "120950.305000", "120952.305000", "120954.305000", "120956.305000", "120958.305000", "121000.305000", "121002.305000", "121004.305000", "121006.305000", "121008.305000", "121010.305000", "121012.305000", "121014.305000", "121016.305000", "121018.305000", "121020.305000", "121022.305000", "121024.305000", "121026.305000", "121028.305000", "121030.305000", "121032.305000", "121034.305000", "121036.305000", "121038.305000", "121040.305000", "121042.305000", "121044.305000", "121046.305000", "121048.305000", "121050.305000", "121052.305000", "121054.305000", "121056.305000", "121058.305000", "121100.305000", "121102.305000", "121104.305000", "121106.305000", "121108.305000", "121110.305000", "121112.305000", "121114.305000", "121116.305000", "121118.305000", "121120.305000", "121122.305000", "121124.305000", "121126.305000", "121128.305000", "121130.305000", "121132.305000", "121134.305000", "121136.305000", "121138.305000", "121140.305000", "121142.305000", "121144.305000", "121146.305000", "121148.305000", "121150.305000", "121152.305000", "121154.305000", "121156.305000", "121158.305000", "121200.305000", "121202.305000", "121204.305000", "121206.305000", "121208.305000", "121210.305000", "121212.305000", "121214.305000", "121216.305000", "121218.305000", "121220.305000", "121222.305000", "121224.305000", "121226.305000", "121228.305000", "121230.305000", "121232.305000", "121234.305000", "121236.305000", "121238.305000", "121240.305000", "121242.305000", "121244.305000", "121246.305000", "121248.305000", "121250.305000", "121252.305000", "121254.305000", "121256.305000", "121258.305000", "121300.305000", "121302.305000", "121304.305000", "121306.305000", "121308.305000", "121310.305000", "121312.305000", "121314.305000", "121316.305000", "121318.305000", "121320.305000", "121322.305000", "121324.305000", "121326.305000", "121328.305000", "121330.305000", "121332.305000", "121334.305000", "121336.305000", "121338.305000", "121340.305000", "121342.305000", "121344.305000", "121346.305000", "121348.305000", "121350.305000", "121352.305000", "121354.305000", "121356.305000", "121358.305000", "121400.305000", "121402.305000", "121404.305000", "121406.305000", "121408.305000", "121410.305000", "121412.305000", "121414.305000", "121416.305000", "121418.305000", "121420.305000", "121422.305000", "121424.305000", "121426.305000", "121428.305000", "121430.305000", "121432.305000", "121434.305000", "121436.305000", "121438.305000", "121440.305000", "121442.305000", "121444.305000", "121446.305000", "121448.305000", "121450.305000", "121452.305000", "121454.305000", "121456.305000", "121458.305000", "121500.307500", "121502.307500", "121504.307500", "121506.307500", "121508.307500", "121510.307500", "121512.307500", "121514.307500", "121516.307500", "121518.307500", "121520.307500", "121522.307500", "121524.307500", "121526.307500", "121528.307500", "121530.307500", "121532.307500", "121534.307500", "121536.307500", "121538.307500", "121540.307500", "121542.307500", "121544.307500", "121546.307500", "121548.307500", "121550.307500", "121552.307500", "121554.307500", "121556.307500", "121558.307500", "121600.307500", "121602.307500", "121604.307500", "121606.307500", "121608.307500", "121610.307500", "121612.307500", "121614.307500", "121616.307500", "121618.307500", "121620.307500", "121622.307500", "121624.307500", "121626.307500", "121628.307500", "121630.307500", "121632.307500", "121634.307500", "121636.307500", "121638.307500", "121640.307500", "121642.307500", "121644.307500", "121646.307500", "121648.307500", "121650.307500", "121652.307500", "121654.307500", "121656.307500", "121658.307500", "121700.307500", "121702.307500", "121704.307500", "121706.307500", "121708.307500", "121710.307500", "121712.307500", "121714.307500", "121716.307500", "121718.307500", "121720.307500", "121722.307500", "121724.307500", "121726.307500", "121728.307500", "121730.307500", "121732.307500", "121734.307500", "121736.307500", "121738.307500", "121740.307500", "121742.307500", "121744.307500", "121746.307500", "121748.307500", "121750.307500", "121752.307500", "121754.307500", "121756.307500", "121758.307500", "121800.307500", "121802.307500", "121804.307500", "121806.307500", "121808.307500", "121810.307500", "121812.307500", "121814.307500", "121816.307500", "121818.307500", "121820.307500", "121822.307500", "121824.307500", "121826.307500", "121828.307500", "121830.307500", "121832.307500", "121834.307500", "121836.307500", "121838.307500", "121840.307500", "121842.307500", "121844.307500", "121846.307500", "121848.307500", "121850.307500", "121852.307500", "121854.307500", "121856.307500", "121858.307500", "121900.307500", "121902.307500", "121904.307500", "121906.307500", "121908.307500", "121910.307500", "121912.307500", "121914.307500", "121916.307500", "121918.307500", "121920.307500", "121922.307500", "121924.307500", "121926.307500", "121928.307500", "121930.307500", "121932.307500", "121934.307500", "121936.307500", "121938.307500", "121940.307500", "121942.307500", "121944.307500", "121946.307500", "121948.307500", "121950.307500", "121952.307500", "121954.307500", "121956.307500", "121958.307500", "122000.307500", "122002.307500", "122004.307500"],
      "ContentTime": ["120840.033000", "120840.053000", "120840.055000", "120840.057000", "120840.059000", "120840.061000", "120840.063000", "120840.065000", "120840.067000", "120840.069000", "120840.071000", "120840.073000", "120840.075000", "120840.077000", "120840.079000", "120840.081000", "120840.083000", "120840.085000", "120840.086000", "120840.089000", "120920.029000", "120920.039000", "120920.041000", "120920.043000", "120920.045000", "120920.047000", "120920.049000", "120920.051000", "120920.053000", "120920.055000", "120920.057000", "120920.059000", "120920.061000", "120920.063000", "120920.065000", "120920.067000", "120920.069000", "120920.071000", "120920.073000", "120920.075000", "121000.029000", "121000.031000", "121000.033000", "121000.035000", "121000.037000", "121000.039000", "121000.041000", "121000.043000", "121000.045000", "121000.047000", "121000.049000", "121000.051000", "121000.053000", "121000.055000", "121000.057000", "121000.059000", "121000.061000", "121000.063000", "121000.065000", "121000.067000", "121040.028000", "121040.030000", "121040.033000", "121040.035000", "121040.037000", "121040.039000", "121040.041000", "121040.043000", "121040.045000", "121040.046000", "121040.048000", "121040.050000", "121040.052000", "121040.054000", "121040.056000", "121040.058000", "121040.060000", "121040.062000", "121040.064000", "121040.066000", "121120.028000", "121120.030000", "121120.032000", "121120.034000", "121120.036000", "121120.038000", "121120.040000", "121120.042000", "121120.044000", "121120.046000", "121120.048000", "121120.050000", "121120.052000", "121120.054000", "121120.056000", "121120.058000", "121120.060000", "121120.062000", "121120.064000", "121120.066000", "121200.029000", "121200.031000", "121200.033000", "121200.035000", "121200.037000", "121200.039000", "121200.041000", "121200.043000", "121200.045000", "121200.047000", "121200.049000", "121200.051000", "121200.053000", "121200.055000", "121200.057000", "121200.059000", "121200.061000", "121200.063000", "121200.065000", "121200.067000", "121240.029000", "121240.031000", "121240.034000", "121240.036000", "121240.037000", "121240.039000", "121240.041000", "121240.043000", "121240.045000", "121240.047000", "121240.049000", "121240.051000", "121240.053000", "121240.055000", "121240.057000", "121240.059000", "121240.061000", "121240.063000", "121240.065000", "121240.067000", "121320.028000", "121320.030000", "121320.033000", "121320.035000", "121320.036000", "121320.038000", "121320.040000", "121320.042000", "121320.044000", "121320.046000", "121320.049000", "121320.050000", "121320.052000", "121320.054000", "121320.056000", "121320.058000", "121320.060000", "121320.062000", "121320.064000", "121320.066000", "121400.029000", "121400.032000", "121400.033000", "121400.035000", "121400.037000", "121400.039000", "121400.041000", "121400.043000", "121400.045000", "121400.047000", "121400.049000", "121400.051000", "121400.053000", "121400.055000", "121400.057000", "121400.059000", "121400.061000", "121400.064000", "121400.065000", "121400.067000", "121440.029000", "121440.031000", "121440.033000", "121440.035000", "121440.037000", "121440.039000", "121440.041000", "121440.043000", "121440.045000", "121440.047000", "121440.049000", "121440.051000", "121440.053000", "121440.055000", "121440.057000", "121440.060000", "121440.061000", "121440.063000", "121440.065000", "121440.067000", "121520.028000", "121520.030000", "121520.032000", "121520.035000", "121520.037000", "121520.038000", "121520.040000", "121520.043000", "121520.045000", "121520.046000", "121520.048000", "121520.050000", "121520.052000", "121520.054000", "121520.056000", "121520.058000", "121520.060000", "121520.062000", "121520.064000", "121520.066000", "121600.028000", "121600.030000", "121600.032000", "121600.035000", "121600.037000", "121600.039000", "121600.040000", "121600.042000", "121600.044000", "121600.046000", "121600.048000", "121600.050000", "121600.052000", "121600.054000", "121600.056000", "121600.058000", "121600.060000", "121600.062000", "121600.064000", "121600.066000", "121640.029000", "121640.031000", "121640.033000", "121640.035000", "121640.037000", "121640.039000", "121640.041000", "121640.043000", "121640.045000", "121640.047000", "121640.049000", "121640.051000", "121640.053000", "121640.055000", "121640.057000", "121640.059000", "121640.061000", "121640.063000", "121640.065000", "121640.067000", "121720.028000", "121720.035000", "121720.037000", "121720.039000", "121720.041000", "121720.043000", "121720.045000", "121720.047000", "121720.049000", "121720.051000", "121720.053000", "121720.055000", "121720.057000", "121720.059000", "121720.061000", "121720.063000", "121720.065000", "121720.067000", "121720.069000", "121720.071000", "121800.028000", "121800.030000", "121800.032000", "121800.034000", "121800.037000", "121800.039000", "121800.040000", "121800.042000", "121800.045000", "121800.047000", "121800.048000", "121800.050000", "121800.053000", "121800.054000", "121800.056000", "121800.058000", "121800.060000", "121800.063000", "121800.064000", "121800.066000", "121840.029000", "121840.031000", "121840.033000", "121840.035000", "121840.037000", "121840.039000", "121840.041000", "121840.043000", "121840.045000", "121840.047000", "121840.049000", "121840.051000", "121840.053000", "121840.055000", "121840.057000", "121840.059000", "121840.061000", "121840.063000", "121840.087000", "121840.089000", "121920.029000", "121920.031000", "121920.033000", "121920.035000", "121920.037000", "121920.039000", "121920.041000", "121920.043000", "121920.045000", "121920.054000", "121920.056000", "121920.058000", "121920.060000", "121920.062000", "121920.064000", "121920.066000", "121920.068000", "121920.070000", "121920.072000", "121920.074000", "122000.028000", "122000.030000", "122000.032000", "122000.034000", "122000.036000", "122000.038000", "122000.040000", "122000.042000", "122000.044000", "122000.046000", "122000.048000", "122000.050000", "122000.052000", "122000.054000", "122000.056000", "122000.058000", "122000.060000", "122000.062000", "122000.064000", "122000.066000", "122006.201000", "122006.203000", "122006.205000", "122006.207000"],
      "InstanceCreationTime": ["120840.033000", "120840.053000", "120840.055000", "120840.057000", "120840.059000", "120840.061000", "120840.063000", "120840.065000", "120840.067000", "120840.069000", "120840.071000", "120840.073000", "120840.075000", "120840.077000", "120840.079000", "120840.081000", "120840.083000", "120840.085000", "120840.086000", "120840.089000", "120920.029000", "120920.039000", "120920.041000", "120920.043000", "120920.045000", "120920.047000", "120920.049000", "120920.051000", "120920.053000", "120920.055000", "120920.057000", "120920.059000", "120920.061000", "120920.063000", "120920.065000", "120920.067000", "120920.069000", "120920.071000", "120920.073000", "120920.075000", "121000.029000", "121000.031000", "121000.033000", "121000.035000", "121000.037000", "121000.039000", "121000.041000", "121000.043000", "121000.045000", "121000.047000", "121000.049000", "121000.051000", "121000.053000", "121000.055000", "121000.057000", "121000.059000", "121000.061000", "121000.063000", "121000.065000", "121000.067000", "121040.028000", "121040.030000", "121040.033000", "121040.035000", "121040.037000", "121040.039000", "121040.041000", "121040.043000", "121040.045000", "121040.046000", "121040.048000", "121040.050000", "121040.052000", "121040.054000", "121040.056000", "121040.058000", "121040.060000", "121040.062000", "121040.064000", "121040.066000", "121120.028000", "121120.030000", "121120.032000", "121120.034000", "121120.036000", "121120.038000", "121120.040000", "121120.042000", "121120.044000", "121120.046000", "121120.048000", "121120.050000", "121120.052000", "121120.054000", "121120.056000", "121120.058000", "121120.060000", "121120.062000", "121120.064000", "121120.066000", "121200.029000", "121200.031000", "121200.033000", "121200.035000", "121200.037000", "121200.039000", "121200.041000", "121200.043000", "121200.045000", "121200.047000", "121200.049000", "121200.051000", "121200.053000", "121200.055000", "121200.057000", "121200.059000", "121200.061000", "121200.063000", "121200.065000", "121200.067000", "121240.029000", "121240.031000", "121240.034000", "121240.036000", "121240.037000", "121240.039000", "121240.041000", "121240.043000", "121240.045000", "121240.047000", "121240.049000", "121240.051000", "121240.053000", "121240.055000", "121240.057000", "121240.059000", "121240.061000", "121240.063000", "121240.065000", "121240.067000", "121320.028000", "121320.030000", "121320.033000", "121320.035000", "121320.036000", "121320.038000", "121320.040000", "121320.042000", "121320.044000", "121320.046000", "121320.049000", "121320.050000", "121320.052000", "121320.054000", "121320.056000", "121320.058000", "121320.060000", "121320.062000", "121320.064000", "121320.066000", "121400.029000", "121400.032000", "121400.033000", "121400.035000", "121400.037000", "121400.039000", "121400.041000", "121400.043000", "121400.045000", "121400.047000", "121400.049000", "121400.051000", "121400.053000", "121400.055000", "121400.057000", "121400.059000", "121400.061000", "121400.064000", "121400.065000", "121400.067000", "121440.029000", "121440.031000", "121440.033000", "121440.035000", "121440.037000", "121440.039000", "121440.041000", "121440.043000", "121440.045000", "121440.047000", "121440.049000", "121440.051000", "121440.053000", "121440.055000", "121440.057000", "121440.060000", "121440.061000", "121440.063000", "121440.065000", "121440.067000", "121520.028000", "121520.030000", "121520.032000", "121520.035000", "121520.037000", "121520.038000", "121520.040000", "121520.043000", "121520.045000", "121520.046000", "121520.048000", "121520.050000", "121520.052000", "121520.054000", "121520.056000", "121520.058000", "121520.060000", "121520.062000", "121520.064000", "121520.066000", "121600.028000", "121600.030000", "121600.032000", "121600.035000", "121600.037000", "121600.039000", "121600.040000", "121600.042000", "121600.044000", "121600.046000", "121600.048000", "121600.050000", "121600.052000", "121600.054000", "121600.056000", "121600.058000", "121600.060000", "121600.062000", "121600.064000", "121600.066000", "121640.029000", "121640.031000", "121640.033000", "121640.035000", "121640.037000", "121640.039000", "121640.041000", "121640.043000", "121640.045000", "121640.047000", "121640.049000", "121640.051000", "121640.053000", "121640.055000", "121640.057000", "121640.059000", "121640.061000", "121640.063000", "121640.065000", "121640.067000", "121720.028000", "121720.035000", "121720.037000", "121720.039000", "121720.041000", "121720.043000", "121720.045000", "121720.047000", "121720.049000", "121720.051000", "121720.053000", "121720.055000", "121720.057000", "121720.059000", "121720.061000", "121720.063000", "121720.065000", "121720.067000", "121720.069000", "121720.071000", "121800.028000", "121800.030000", "121800.032000", "121800.034000", "121800.037000", "121800.039000", "121800.040000", "121800.042000", "121800.045000", "121800.047000", "121800.048000", "121800.050000", "121800.053000", "121800.054000", "121800.056000", "121800.058000", "121800.060000", "121800.063000", "121800.064000", "121800.066000", "121840.029000", "121840.031000", "121840.033000", "121840.035000", "121840.037000", "121840.039000", "121840.041000", "121840.043000", "121840.045000", "121840.047000", "121840.049000", "121840.051000", "121840.053000", "121840.055000", "121840.057000", "121840.059000", "121840.061000", "121840.063000", "121840.087000", "121840.089000", "121920.029000", "121920.031000", "121920.033000", "121920.035000", "121920.037000", "121920.039000", "121920.041000", "121920.043000", "121920.045000", "121920.054000", "121920.056000", "121920.058000", "121920.060000", "121920.062000", "121920.064000", "121920.066000", "121920.068000", "121920.070000", "121920.072000", "121920.074000", "122000.028000", "122000.030000", "122000.032000", "122000.034000", "122000.036000", "122000.038000", "122000.040000", "122000.042000", "122000.044000", "122000.046000", "122000.048000", "122000.050000", "122000.052000", "122000.054000", "122000.056000", "122000.058000", "122000.060000", "122000.062000", "122000.064000", "122000.066000", "122006.201000", "122006.203000", "122006.205000", "122006.207000"],
      "InstanceNumber": [1, 2, 3, 4, 5, 6, 7, 8, 9, 10, 11, 12, 13, 14, 15, 16, 17, 18, 19, 20, 21, 22, 23, 24, 25, 26, 27, 28, 29, 30, 31, 32, 33, 34, 35, 36, 37, 38, 39, 40, 41, 42, 43, 44, 45, 46, 47, 48, 49, 50, 51, 52, 53, 54, 55, 56, 57, 58, 59, 60, 61, 62, 63, 64, 65, 66, 67, 68, 69, 70, 71, 72, 73, 74, 75, 76, 77, 78, 79, 80, 81, 82, 83, 84, 85, 86, 87, 88, 89, 90, 91, 92, 93, 94, 95, 96, 97, 98, 99, 100, 101, 102, 103, 104, 105, 106, 107, 108, 109, 110, 111, 112, 113, 114, 115, 116, 117, 118, 119, 120, 121, 122, 123, 124, 125, 126, 127, 128, 129, 130, 131, 132, 133, 134, 135, 136, 137, 138, 139, 140, 141, 142, 143, 144, 145, 146, 147, 148, 149, 150, 151, 152, 153, 154, 155, 156, 157, 158, 159, 160, 161, 162, 163, 164, 165, 166, 167, 168, 169, 170, 171, 172, 173, 174, 175, 176, 177, 178, 179, 180, 181, 182, 183, 184, 185, 186, 187, 188, 189, 190, 191, 192, 193, 194, 195, 196, 197, 198, 199, 200, 201, 202, 203, 204, 205, 206, 207, 208, 209, 210, 211, 212, 213, 214, 215, 216, 217, 218, 219, 220, 221, 222, 223, 224, 225, 226, 227, 228, 229, 230, 231, 232, 233, 234, 235, 236, 237, 238, 239, 240, 241, 242, 243, 244, 245, 246, 247, 248, 249, 250, 251, 252, 253, 254, 255, 256, 257, 258, 259, 260, 261, 262, 263, 264, 265, 266, 267, 268, 269, 270, 271, 272, 273, 274, 275, 276, 277, 278, 279, 280, 281, 282, 283, 284, 285, 286, 287, 288, 289, 290, 291, 292, 293, 294, 295, 296, 297, 298, 299, 300, 301, 302, 303, 304, 305, 306, 307, 308, 309, 310, 311, 312, 313, 314, 315, 316, 317, 318, 319, 320, 321, 322, 323, 324, 325, 326, 327, 328, 329, 330, 331, 332, 333, 334, 335, 336, 337, 338, 339, 340, 341, 342, 343, 344, 345, 346, 347, 348, 349, 350, 351, 352, 353, 354, 355, 356, 357, 358, 359, 360, 361, 362, 363, 364],
      "LargestImagePixelValue": [2742, 2610, 2565, 2545, 2539, 2543, 2549, 2554, 2545, 2544, 2562, 2543, 2556, 2546, 2560, 2550, 2560, 2555, 2552, 2560, 2566, 2566, 2563, 2554, 2559, 2548, 2561, 2549, 2555, 2557, 2527, 2555, 2542, 2566, 2537, 2547, 2543, 2538, 2555, 2533, 2552, 2543, 2552, 2540, 2550, 2544, 2565, 2541, 2571, 2539, 2559, 2534, 2537, 2559, 2547, 2557, 2546, 2560, 2553, 2551, 2513, 2528, 2561, 2546, 2540, 2544, 2527, 2535, 2538, 2536, 2534, 2544, 2537, 2550, 2553, 2536, 2561, 2541, 2539, 2542, 2549, 2562, 2537, 2531, 2548, 2537, 2539, 2526, 2534, 2536, 2507, 2532, 2513, 2530, 2520, 2526, 2524, 2514, 2538, 2531, 2507, 2544, 2517, 2516, 2526, 2507, 2519, 2521, 2514, 2529, 2525, 2542, 2525, 2528, 2519, 2497, 2514, 2500, 2516, 2505, 2513, 2544, 2526, 2538, 2521, 2522, 2525, 2516, 2536, 2515, 2524, 2529, 2504, 2528, 2511, 2521, 2527, 2511, 2522, 2505, 2512, 2524, 2516, 2522, 2534, 2516, 2515, 2521, 2525, 2512, 2542, 2521, 2541, 2545, 2539, 2535, 2514, 2512, 2529, 2524, 2522, 2518, 2530, 2525, 2522, 2514, 2517, 2520, 2530, 2520, 2514, 2516, 2523, 2534, 2514, 2506, 2515, 2509, 2502, 2513, 2511, 2539, 2539, 2539, 2528, 2530, 2530, 2526, 2532, 2524, 2527, 2527, 2526, 2514, 2527, 2516, 2519, 2517, 2524, 2509, 2517, 2517, 2523, 2501, 2518, 2508, 2569, 2565, 2555, 2562, 2547, 2531, 2520, 2523, 2518, 2531, 2521, 2530, 2526, 2517, 2529, 2521, 2526, 2517, 2515, 2520, 2515, 2509, 2505, 2516, 2513, 2572, 2555, 2550, 2534, 2525, 2533, 2527, 2533, 2539, 2536, 2546, 2542, 2543, 2532, 2551, 2525, 2524, 2541, 2527, 2536, 2537, 2525, 2524, 2523, 2529, 2538, 2541, 2535, 2548, 2532, 2536, 2534, 2531, 2528, 2535, 2534, 2536, 2534, 2533, 2560, 2631, 2656, 2629, 2524, 2523, 2533, 2533, 2528, 2533, 2539, 2544, 2538, 2549, 2550, 2543, 2550, 2554, 2541, 2551, 2547, 2543, 2556, 2551, 2541, 2543, 2537, 2551, 2517, 2552, 2539, 2580, 2538, 2544, 2537, 2551, 2551, 2546, 2542, 2548, 2548, 2547, 2545, 2553, 2549, 2543, 2562, 2554, 2561, 2545, 2561, 2586, 2562, 2553, 2545, 2549, 2548, 2553, 2543, 2558, 2563, 2478, 2488, 2487, 2503, 2505, 2493, 2540, 2513, 2516, 2512, 2532, 2529, 2527, 2530, 2512, 2522, 2498, 2513, 2522, 2511, 2526, 2510, 2521, 2520, 2519, 2535, 2527, 2536, 2533, 2518, 2457, 2526, 2504],
