{
  "AcquisitionMatrixPE": 64,
  "AcquisitionNumber": 1,
  "AcquisitionTime": "10:58:55.530000",
  "BandwidthPerPixelPhaseEncode": 25.202,
  "BaseResolution": 64,
  "BodyPartExamined": "BRAIN",
  "ConsistencyInfo": "N4_VD13C_LATEST_20121124",
  "ConversionSoftware": "dcm2niix",
  "ConversionSoftwareVersion": "v1.0.20201102",
  "DerivedVendorReportedEchoSpacing": 0.00061999,
  "DeviceSerialNumber": "45758",
  "DwellTime": 4.3e-06,
  "EchoTime": 0.03,
  "EchoTrainLength": 64,
  "EffectiveEchoSpacing": 0.00061999,
  "FlipAngle": 90,
  "ImageOrientationPatientDICOM": [0.999921, 0.0124537, 0.001404, -0.012217, 0.993586, -0.112418],
  "ImageType": [
    "ORIGINAL",
    "PRIMARY",
    "M",
    "ND",
    "MOSAIC"
],
  "ImagingFrequency": 123.2,
  "InPlanePhaseEncodingDirectionDICOM": "ROW",
  "InstitutionAddress": "Street StreetNo,City /652E4B/,District,KR,ZIP",
  "InstitutionName": "DGMIF",
  "InstitutionalDepartmentName": "Department",
  "MRAcquisitionType": "2D",
  "MagneticFieldStrength": 3,
  "Manufacturer": "Siemens",
  "ManufacturersModelName": "Skyra",
  "Modality": "MR",
  "PartialFourier": 1,
  "PatientPosition": "HFS",
  "PercentPhaseFOV": 100,
  "PercentSampling": 100,
  "PhaseEncodingDirection": "i",
  "PhaseEncodingSteps": 64,
  "PhaseResolution": 1,
  "PixelBandwidth": 1815,
  "ProcedureStepDescription": "DGMIF^DGIST_Jeon",
  "ProtocolName": "EPI_DGIST_1",
  "PulseSequenceDetails": "%SiemensSeq%\\ep2d_bold",
  "ReceiveCoilActiveElements": "HC1-7;NC1",
  "ReceiveCoilName": "HeadNeck_64",
  "ReconMatrixPE": 64,
  "RepetitionTime": 2,
  "SAR": 0.113257,
  "ScanOptions": "FS",
  "ScanningSequence": "EP",
  "SequenceName": "*epfid2d1_64",
  "SequenceVariant": "SK",
  "SeriesDescription": "EPI_DGIST_1",
  "SeriesNumber": 2,
  "ShimSetting": [-9731, -13657, -8113, 321, -361, -42, -455, -124],
  "SliceThickness": 4,
  "SliceTiming": [0.99, 0, 1.0575, 0.0675, 1.1225, 0.1325, 1.1875, 0.1975, 1.255, 0.265, 1.32, 0.33, 1.3875, 0.3975, 1.4525, 0.4625, 1.5175, 0.5275, 1.585, 0.595, 1.65, 0.66, 1.7175, 0.7275, 1.7825, 0.7925, 1.8475, 0.8575, 1.915, 0.925],
  "SoftwareVersions": "syngo MR D13C",
  "SpacingBetweenSlices": 4.8,
  "StationName": "AWP45758",
  "TaskName": "asrt",
  "TotalReadoutTime": 0.0390594,
  "TxRefAmp": 308.469,
  "dcmmeta_affine": [
    [-2.9997644424438477, -0.03665086254477501, 0.013416069559752941, 95.2886962890625],
    [-0.03736112639307976, 2.980757713317871, -0.5394825339317322, -111.65922546386719],
    [0.004211990162730217, 0.33725452423095703, 4.769567966461182, -68.97117614746094],
    [0.0, 0.0, 0.0, 1.0]
],
  "dcmmeta_reorient_transform": [
    [0.0, -1.0, 0.0, 63.0],
    [1.0, 0.0, 0.0, 0.0],
    [0.0, 0.0, 1.0, 0.0],
    [0.0, 0.0, 0.0, 1.0]
],
  "dcmmeta_shape": [64, 64, 30, 514],
  "dcmmeta_slice_dim": 2,
  "dcmmeta_version": 0.6,
  "global": {
    "const": {
      "AcquisitionMatrix": [0, 64, 64, 0],
      "AngioFlag": "N",
      "BitsAllocated": 16,
      "BitsStored": 12,
      "BodyPartExamined": "BRAIN",
      "Columns": 384,
      "EchoNumbers": 1,
      "EchoTime": 30.0,
      "EchoTrainLength": 64,
      "FlipAngle": 90.0,
      "HighBit": 11,
      "ImageOrientationPatient": [0.99992146388373, 0.01245370860265, 0.00140399667678, -0.0122169537423, 0.9935858794799, -0.1124181753073],
      "ImagePositionPatient": [-567.07785669747, -559.02750688289, 5.5626628323128],
      "ImageType": [
        "ORIGINAL",
        "PRIMARY",
        "M",
        "ND",
        "MOSAIC"
],
      "ImagedNucleus": "1H",
      "ImagingFrequency": 123.200169,
      "InPlanePhaseEncodingDirection": "ROW",
      "MRAcquisitionType": "2D",
      "MagneticFieldStrength": 3.0,
      "Manufacturer": "SIEMENS",
      "ManufacturerModelName": "Skyra",
      "Modality": "MR",
      "NumberOfAverages": 1.0,
      "NumberOfPhaseEncodingSteps": 64,
      "PercentPhaseFieldOfView": 100.0,
      "PercentSampling": 100.0,
      "PerformedProcedureStepStartTime": "105417.296000",
      "PhotometricInterpretation": "MONOCHROME2",
      "PixelBandwidth": 1815.0,
      "PixelRepresentation": 0,
      "PixelSpacing": [3.0, 3.0],
      "ProtocolName": "EPI_DGIST_1",
      "RepetitionTime": 2000.0,
      "Rows": 384,
      "SAR": 0.11325682269057,
      "SamplesPerPixel": 1,
      "ScanOptions": "FS",
      "ScanningSequence": "EP",
      "SequenceName": "*epfid2d1_64",
      "SequenceVariant": "SK",
      "SeriesDescription": "EPI_DGIST_1",
      "SeriesNumber": 2,
      "SeriesTime": "105947.590000",
      "SliceLocation": -55.717941596791,
      "SliceThickness": 4.0,
      "SmallestImagePixelValue": 0,
      "SoftwareVersions": "syngo MR D13C",
      "SpacingBetweenSlices": 4.7999999866375,
      "SpecificCharacterSet": "ISO_IR 100",
      "StudyID": "1",
      "StudyTime": "105417.233000",
      "TimeOfLastCalibration": ["123723.000000", "123723.000000"],
      "TransmitCoilName": "Body",
      "VariableFlipAngleFlag": "N",
      "WindowCenterWidthExplanation": "Algo1",
      "dBdt": 0.0},
    "slices": {}
  },
  "time": {
    "samples": {
      "AcquisitionNumber": [1, 2, 3, 4, 5, 6, 7, 8, 9, 10, 11, 12, 13, 14, 15, 16, 17, 18, 19, 20, 21, 22, 23, 24, 25, 26, 27, 28, 29, 30, 31, 32, 33, 34, 35, 36, 37, 38, 39, 40, 41, 42, 43, 44, 45, 46, 47, 48, 49, 50, 51, 52, 53, 54, 55, 56, 57, 58, 59, 60, 61, 62, 63, 64, 65, 66, 67, 68, 69, 70, 71, 72, 73, 74, 75, 76, 77, 78, 79, 80, 81, 82, 83, 84, 85, 86, 87, 88, 89, 90, 91, 92, 93, 94, 95, 96, 97, 98, 99, 100, 101, 102, 103, 104, 105, 106, 107, 108, 109, 110, 111, 112, 113, 114, 115, 116, 117, 118, 119, 120, 121, 122, 123, 124, 125, 126, 127, 128, 129, 130, 131, 132, 133, 134, 135, 136, 137, 138, 139, 140, 141, 142, 143, 144, 145, 146, 147, 148, 149, 150, 151, 152, 153, 154, 155, 156, 157, 158, 159, 160, 161, 162, 163, 164, 165, 166, 167, 168, 169, 170, 171, 172, 173, 174, 175, 176, 177, 178, 179, 180, 181, 182, 183, 184, 185, 186, 187, 188, 189, 190, 191, 192, 193, 194, 195, 196, 197, 198, 199, 200, 201, 202, 203, 204, 205, 206, 207, 208, 209, 210, 211, 212, 213, 214, 215, 216, 217, 218, 219, 220, 221, 222, 223, 224, 225, 226, 227, 228, 229, 230, 231, 232, 233, 234, 235, 236, 237, 238, 239, 240, 241, 242, 243, 244, 245, 246, 247, 248, 249, 250, 251, 252, 253, 254, 255, 256, 257, 258, 259, 260, 261, 262, 263, 264, 265, 266, 267, 268, 269, 270, 271, 272, 273, 274, 275, 276, 277, 278, 279, 280, 281, 282, 283, 284, 285, 286, 287, 288, 289, 290, 291, 292, 293, 294, 295, 296, 297, 298, 299, 300, 301, 302, 303, 304, 305, 306, 307, 308, 309, 310, 311, 312, 313, 314, 315, 316, 317, 318, 319, 320, 321, 322, 323, 324, 325, 326, 327, 328, 329, 330, 331, 332, 333, 334, 335, 336, 337, 338, 339, 340, 341, 342, 343, 344, 345, 346, 347, 348, 349, 350, 351, 352, 353, 354, 355, 356, 357, 358, 359, 360, 361, 362, 363, 364, 365, 366, 367, 368, 369, 370, 371, 372, 373, 374, 375, 376, 377, 378, 379, 380, 381, 382, 383, 384, 385, 386, 387, 388, 389, 390, 391, 392, 393, 394, 395, 396, 397, 398, 399, 400, 401, 402, 403, 404, 405, 406, 407, 408, 409, 410, 411, 412, 413, 414, 415, 416, 417, 418, 419, 420, 421, 422, 423, 424, 425, 426, 427, 428, 429, 430, 431, 432, 433, 434, 435, 436, 437, 438, 439, 440, 441, 442, 443, 444, 445, 446, 447, 448, 449, 450, 451, 452, 453, 454, 455, 456, 457, 458, 459, 460, 461, 462, 463, 464, 465, 466, 467, 468, 469, 470, 471, 472, 473, 474, 475, 476, 477, 478, 479, 480, 481, 482, 483, 484, 485, 486, 487, 488, 489, 490, 491, 492, 493, 494, 495, 496, 497, 498, 499, 500, 501, 502, 503, 504, 505, 506, 507, 508, 509, 510, 511, 512, 513, 514],
      "AcquisitionTime": ["105855.530000", "105857.530000", "105859.530000", "105901.530000", "105903.530000", "105905.530000", "105907.530000", "105909.530000", "105911.530000", "105913.530000", "105915.530000", "105917.530000", "105919.530000", "105921.530000", "105923.530000", "105925.530000", "105927.530000", "105929.530000", "105931.530000", "105933.530000", "105935.530000", "105937.530000", "105939.530000", "105941.530000", "105943.530000", "105945.530000", "105947.530000", "105949.530000", "105951.530000", "105953.530000", "105955.530000", "105957.530000", "105959.530000", "110001.530000", "110003.530000", "110005.530000", "110007.530000", "110009.530000", "110011.530000", "110013.530000", "110015.530000", "110017.530000", "110019.530000", "110021.530000", "110023.530000", "110025.530000", "110027.530000", "110029.530000", "110031.530000", "110033.530000", "110035.530000", "110037.530000", "110039.530000", "110041.530000", "110043.530000", "110045.530000", "110047.530000", "110049.530000", "110051.530000", "110053.530000", "110055.530000", "110057.530000", "110059.530000", "110101.530000", "110103.530000", "110105.530000", "110107.530000", "110109.530000", "110111.530000", "110113.530000", "110115.530000", "110117.530000", "110119.530000", "110121.530000", "110123.530000", "110125.530000", "110127.530000", "110129.532500", "110131.532500", "110133.532500", "110135.532500", "110137.532500", "110139.532500", "110141.532500", "110143.532500", "110145.532500", "110147.532500", "110149.532500", "110151.532500", "110153.532500", "110155.532500", "110157.532500", "110159.532500", "110201.532500", "110203.532500", "110205.532500", "110207.532500", "110209.532500", "110211.532500", "110213.532500", "110215.532500", "110217.532500", "110219.532500", "110221.532500", "110223.532500", "110225.532500", "110227.532500", "110229.532500", "110231.532500", "110233.532500", "110235.532500", "110237.532500", "110239.532500", "110241.532500", "110243.532500", "110245.532500", "110247.532500", "110249.532500", "110251.532500", "110253.532500", "110255.532500", "110257.532500", "110259.532500", "110301.532500", "110303.532500", "110305.532500", "110307.532500", "110309.532500", "110311.532500", "110313.532500", "110315.532500", "110317.532500", "110319.532500", "110321.532500", "110323.532500", "110325.532500", "110327.532500", "110329.532500", "110331.532500", "110333.532500", "110335.532500", "110337.532500", "110339.532500", "110341.532500", "110343.532500", "110345.532500", "110347.532500", "110349.532500", "110351.532500", "110353.532500", "110355.532500", "110357.532500", "110359.532500", "110401.532500", "110403.532500", "110405.532500", "110407.532500", "110409.532500", "110411.532500", "110413.532500", "110415.532500", "110417.532500", "110419.532500", "110421.532500", "110423.532500", "110425.532500", "110427.532500", "110429.532500", "110431.532500", "110433.532500", "110435.532500", "110437.532500", "110439.532500", "110441.532500", "110443.532500", "110445.532500", "110447.532500", "110449.532500", "110451.532500", "110453.532500", "110455.532500", "110457.532500", "110459.532500", "110501.532500", "110503.532500", "110505.532500", "110507.532500", "110509.532500", "110511.532500", "110513.532500", "110515.532500", "110517.532500", "110519.532500", "110521.532500", "110523.532500", "110525.532500", "110527.532500", "110529.532500", "110531.532500", "110533.532500", "110535.532500", "110537.532500", "110539.532500", "110541.532500", "110543.532500", "110545.532500", "110547.532500", "110549.532500", "110551.532500", "110553.532500", "110555.532500", "110557.532500", "110559.532500", "110601.532500", "110603.532500", "110605.532500", "110607.532500", "110609.532500", "110611.532500", "110613.532500", "110615.532500", "110617.532500", "110619.532500", "110621.532500", "110623.532500", "110625.532500", "110627.532500", "110629.532500", "110631.532500", "110633.532500", "110635.532500", "110637.532500", "110639.532500", "110641.532500", "110643.532500", "110645.532500", "110647.532500", "110649.532500", "110651.532500", "110653.532500", "110655.532500", "110657.532500", "110659.532500", "110701.532500", "110703.532500", "110705.532500", "110707.532500", "110709.532500", "110711.532500", "110713.532500", "110715.532500", "110717.532500", "110719.532500", "110721.532500", "110723.532500", "110725.532500", "110727.532500", "110729.532500", "110731.532500", "110733.532500", "110735.532500", "110737.532500", "110739.532500", "110741.532500", "110743.532500", "110745.532500", "110747.532500", "110749.532500", "110751.532500", "110753.532500", "110755.532500", "110757.532500", "110759.532500", "110801.532500", "110803.532500", "110805.532500", "110807.532500", "110809.532500", "110811.532500", "110813.532500", "110815.532500", "110817.532500", "110819.532500", "110821.532500", "110823.532500", "110825.532500", "110827.532500", "110829.532500", "110831.532500", "110833.532500", "110835.532500", "110837.532500", "110839.532500", "110841.532500", "110843.532500", "110845.532500", "110847.532500", "110849.532500", "110851.532500", "110853.532500", "110855.532500", "110857.532500", "110859.532500", "110901.532500", "110903.532500", "110905.532500", "110907.532500", "110909.532500", "110911.532500", "110913.532500", "110915.532500", "110917.532500", "110919.532500", "110921.532500", "110923.532500", "110925.532500", "110927.532500", "110929.532500", "110931.532500", "110933.532500", "110935.532500", "110937.532500", "110939.532500", "110941.532500", "110943.532500", "110945.532500", "110947.532500", "110949.535000", "110951.535000", "110953.535000", "110955.535000", "110957.535000", "110959.535000", "111001.535000", "111003.535000", "111005.535000", "111007.535000", "111009.535000", "111011.535000", "111013.535000", "111015.535000", "111017.535000", "111019.535000", "111021.535000", "111023.535000", "111025.535000", "111027.535000", "111029.535000", "111031.535000", "111033.535000", "111035.535000", "111037.535000", "111039.535000", "111041.535000", "111043.535000", "111045.535000", "111047.535000", "111049.535000", "111051.535000", "111053.535000", "111055.535000", "111057.535000", "111059.535000", "111101.535000", "111103.535000", "111105.535000", "111107.535000", "111109.535000", "111111.535000", "111113.535000", "111115.535000", "111117.535000", "111119.535000", "111121.535000", "111123.535000", "111125.535000", "111127.535000", "111129.535000", "111131.535000", "111133.535000", "111135.535000", "111137.535000", "111139.535000", "111141.535000", "111143.535000", "111145.535000", "111147.535000", "111149.535000", "111151.535000", "111153.535000", "111155.535000", "111157.535000", "111159.535000", "111201.535000", "111203.535000", "111205.535000", "111207.535000", "111209.535000", "111211.535000", "111213.535000", "111215.535000", "111217.535000", "111219.535000", "111221.535000", "111223.535000", "111225.535000", "111227.535000", "111229.535000", "111231.535000", "111233.535000", "111235.535000", "111237.535000", "111239.535000", "111241.535000", "111243.535000", "111245.535000", "111247.535000", "111249.535000", "111251.535000", "111253.535000", "111255.535000", "111257.535000", "111259.535000", "111301.535000", "111303.535000", "111305.535000", "111307.535000", "111309.535000", "111311.535000", "111313.535000", "111315.535000", "111317.535000", "111319.535000", "111321.535000", "111323.535000", "111325.535000", "111327.535000", "111329.535000", "111331.535000", "111333.535000", "111335.535000", "111337.535000", "111339.535000", "111341.535000", "111343.535000", "111345.535000", "111347.535000", "111349.535000", "111351.535000", "111353.535000", "111355.535000", "111357.535000", "111359.535000", "111401.535000", "111403.535000", "111405.535000", "111407.535000", "111409.535000", "111411.535000", "111413.535000", "111415.535000", "111417.535000", "111419.535000", "111421.535000", "111423.535000", "111425.535000", "111427.535000", "111429.535000", "111431.535000", "111433.535000", "111435.535000", "111437.535000", "111439.535000", "111441.535000", "111443.535000", "111445.535000", "111447.535000", "111449.535000", "111451.535000", "111453.535000", "111455.535000", "111457.535000", "111459.535000", "111501.535000", "111503.535000", "111505.535000", "111507.535000", "111509.535000", "111511.535000", "111513.535000", "111515.535000", "111517.535000", "111519.535000", "111521.535000", "111523.535000", "111525.535000", "111527.535000", "111529.535000", "111531.535000", "111533.535000", "111535.535000", "111537.535000", "111539.535000", "111541.535000", "111543.535000", "111545.535000", "111547.535000", "111549.535000", "111551.535000", "111553.535000", "111555.535000", "111557.535000", "111559.535000", "111601.535000"],
      "ContentTime": ["105947.593000", "105947.596000", "105947.598000", "105947.600000", "105947.601000", "105947.603000", "105947.605000", "105947.607000", "105947.609000", "105947.611000", "105947.613000", "105947.615000", "105947.617000", "105947.619000", "105947.621000", "105947.623000", "105947.625000", "105947.632000", "105947.634000", "105947.635000", "105947.637000", "105947.639000", "105947.641000", "105947.643000", "105947.645000", "105947.647000", "110027.587000", "110027.589000", "110027.591000", "110027.593000", "110027.595000", "110027.597000", "110027.599000", "110027.601000", "110027.603000", "110027.605000", "110027.607000", "110027.609000", "110027.610000", "110027.612000", "110027.614000", "110027.616000", "110027.618000", "110027.620000", "110027.622000", "110027.624000", "110107.587000", "110107.589000", "110107.591000", "110107.593000", "110107.595000", "110107.597000", "110107.599000", "110107.601000", "110107.603000", "110107.605000", "110107.607000", "110107.609000", "110107.611000", "110107.613000", "110107.614000", "110107.616000", "110107.618000", "110107.620000", "110107.622000", "110107.624000", "110147.588000", "110147.590000", "110147.592000", "110147.594000", "110147.596000", "110147.598000", "110147.600000", "110147.602000", "110147.604000", "110147.606000", "110147.608000", "110147.610000", "110147.612000", "110147.613000", "110147.615000", "110147.617000", "110147.619000", "110147.621000", "110147.623000", "110147.625000", "110227.588000", "110227.590000", "110227.592000", "110227.594000", "110227.596000", "110227.598000", "110227.600000", "110227.602000", "110227.604000", "110227.606000", "110227.608000", "110227.610000", "110227.617000", "110227.619000", "110227.621000", "110227.623000", "110227.625000", "110227.627000", "110227.629000", "110227.631000", "110307.587000", "110307.589000", "110307.591000", "110307.593000", "110307.595000", "110307.597000", "110307.599000", "110307.601000", "110307.603000", "110307.605000", "110307.607000", "110307.609000", "110307.611000", "110307.613000", "110307.615000", "110307.617000", "110307.618000", "110307.620000", "110307.622000", "110307.624000", "110347.588000", "110347.590000", "110347.592000", "110347.594000", "110347.596000", "110347.598000", "110347.600000", "110347.602000", "110347.604000", "110347.606000", "110347.608000", "110347.610000", "110347.612000", "110347.614000", "110347.615000", "110347.617000", "110347.619000", "110347.621000", "110347.623000", "110347.625000", "110427.588000", "110427.590000", "110427.604000", "110427.606000", "110427.608000", "110427.610000", "110427.612000", "110427.614000", "110427.616000", "110427.618000", "110427.620000", "110427.622000", "110427.624000", "110427.626000", "110427.628000", "110427.630000", "110427.631000", "110427.633000", "110427.635000", "110427.637000", "110507.587000", "110507.590000", "110507.591000", "110507.593000", "110507.595000", "110507.597000", "110507.599000", "110507.601000", "110507.603000", "110507.605000", "110507.607000", "110507.609000", "110507.611000", "110507.613000", "110507.615000", "110507.617000", "110507.619000", "110507.621000", "110507.622000", "110507.624000", "110547.587000", "110547.589000", "110547.591000", "110547.593000", "110547.595000", "110547.597000", "110547.599000", "110547.601000", "110547.603000", "110547.605000", "110547.607000", "110547.609000", "110547.611000", "110547.613000", "110547.615000", "110547.617000", "110547.619000", "110547.621000", "110547.623000", "110547.624000", "110627.588000", "110627.590000", "110627.592000", "110627.594000", "110627.596000", "110627.598000", "110627.600000", "110627.602000", "110627.604000", "110627.606000", "110627.608000", "110627.610000", "110627.612000", "110627.614000", "110627.616000", "110627.617000", "110627.619000", "110627.621000", "110627.623000", "110627.625000", "110707.588000", "110707.590000", "110707.592000", "110707.594000", "110707.596000", "110707.598000", "110707.600000", "110707.602000", "110707.604000", "110707.606000", "110707.608000", "110707.610000", "110707.612000", "110707.614000", "110707.616000", "110707.618000", "110707.620000", "110707.621000", "110707.623000", "110707.625000", "110747.587000", "110747.589000", "110747.591000", "110747.593000", "110747.595000", "110747.597000", "110747.599000", "110747.601000", "110747.603000", "110747.605000", "110747.607000", "110747.609000", "110747.611000", "110747.613000", "110747.615000", "110747.617000", "110747.619000", "110747.620000", "110747.622000", "110747.624000", "110827.588000", "110827.590000", "110827.592000", "110827.594000", "110827.596000", "110827.598000", "110827.600000", "110827.602000", "110827.604000", "110827.606000", "110827.608000", "110827.610000", "110827.612000", "110827.614000", "110827.629000", "110827.631000", "110827.633000", "110827.635000", "110827.637000", "110827.639000", "110907.588000", "110907.590000", "110907.592000", "110907.594000", "110907.596000", "110907.598000", "110907.600000", "110907.602000", "110907.604000", "110907.606000", "110907.608000", "110907.610000", "110907.612000", "110907.614000", "110907.616000", "110907.618000", "110907.620000", "110907.622000", "110907.623000", "110907.625000", "110947.587000", "110947.590000", "110947.592000", "110947.593000", "110947.595000", "110947.597000", "110947.599000", "110947.601000", "110947.603000", "110947.605000", "110947.607000", "110947.609000", "110947.611000", "110947.613000", "110947.615000", "110947.617000", "110947.619000", "110947.621000", "110947.623000", "110947.624000", "111027.587000", "111027.589000", "111027.605000", "111027.606000", "111027.608000", "111027.610000", "111027.612000", "111027.614000", "111027.616000", "111027.618000", "111027.620000", "111027.622000", "111027.624000", "111027.626000", "111027.628000", "111027.630000", "111027.632000", "111027.634000", "111027.636000", "111027.638000", "111107.588000", "111107.590000", "111107.592000", "111107.594000", "111107.596000", "111107.598000", "111107.600000", "111107.602000", "111107.604000", "111107.606000", "111107.608000", "111107.610000", "111107.612000", "111107.614000", "111107.616000", "111107.618000", "111107.620000", "111107.622000", "111107.623000", "111107.625000", "111147.588000", "111147.591000", "111147.593000", "111147.594000", "111147.596000", "111147.598000", "111147.600000", "111147.602000", "111147.604000", "111147.606000", "111147.608000", "111147.610000", "111147.612000", "111147.614000", "111147.616000", "111147.618000", "111147.620000", "111147.622000", "111147.624000", "111147.625000", "111227.587000", "111227.590000", "111227.591000", "111227.593000", "111227.595000", "111227.597000", "111227.599000", "111227.601000", "111227.603000", "111227.605000", "111227.607000", "111227.609000", "111227.611000", "111227.613000", "111227.615000", "111227.617000", "111227.619000", "111227.621000", "111227.623000", "111227.625000", "111307.588000", "111307.590000", "111307.592000", "111307.594000", "111307.596000", "111307.598000", "111307.600000", "111307.602000", "111307.604000", "111307.606000", "111307.608000", "111307.610000", "111307.612000", "111307.614000", "111307.616000", "111307.618000", "111307.620000", "111307.621000", "111307.623000", "111307.638000", "111347.588000", "111347.590000", "111347.592000", "111347.594000", "111347.596000", "111347.598000", "111347.600000", "111347.602000", "111347.604000", "111347.606000", "111347.608000", "111347.610000", "111347.612000", "111347.614000", "111347.616000", "111347.618000", "111347.620000", "111347.621000", "111347.623000", "111347.625000", "111427.587000", "111427.589000", "111427.591000", "111427.593000", "111427.595000", "111427.597000", "111427.599000", "111427.601000", "111427.603000", "111427.605000", "111427.607000", "111427.609000", "111427.611000", "111427.613000", "111427.615000", "111427.617000", "111427.618000", "111427.620000", "111427.622000", "111427.624000", "111507.588000", "111507.590000", "111507.592000", "111507.594000", "111507.596000", "111507.598000", "111507.600000", "111507.602000", "111507.604000", "111507.606000", "111507.608000", "111507.610000", "111507.612000", "111507.614000", "111507.616000", "111507.618000", "111507.620000", "111507.621000", "111507.623000", "111507.625000", "111547.588000", "111547.590000", "111547.593000", "111547.595000", "111547.597000", "111547.598000", "111547.600000", "111547.602000", "111547.604000", "111547.606000", "111547.608000", "111547.610000", "111547.612000", "111547.614000", "111547.616000", "111547.618000", "111547.620000", "111547.622000", "111547.624000", "111547.625000", "111602.525000", "111602.527000", "111602.529000", "111602.531000", "111602.533000", "111602.535000", "111602.537000", "111602.539000"],
