{
  "AcquisitionMatrixPE": 64,
  "AcquisitionNumber": 1,
  "AcquisitionTime": "11:31:41.417500",
  "BandwidthPerPixelPhaseEncode": 25.202,
  "BaseResolution": 64,
  "BodyPartExamined": "BRAIN",
  "ConsistencyInfo": "N4_VD13C_LATEST_20121124",
  "ConversionSoftware": "dcm2niix",
  "ConversionSoftwareVersion": "v1.0.20201102",
  "DerivedVendorReportedEchoSpacing": 0.00061999,
  "DeviceSerialNumber": "45758",
  "DwellTime": 4.3e-06,
  "EchoTime": 0.03,
  "EchoTrainLength": 64,
  "EffectiveEchoSpacing": 0.00061999,
  "FlipAngle": 90,
  "ImageOrientationPatientDICOM": [0.999921, 0.0124537, 0.001404, -0.012217, 0.993586, -0.112418],
  "ImageType": [
    "ORIGINAL",
    "PRIMARY",
    "M",
    "ND",
    "MOSAIC"
],
  "ImagingFrequency": 123.2,
  "InPlanePhaseEncodingDirectionDICOM": "ROW",
  "InstitutionAddress": "Street StreetNo,City /652E4B/,District,KR,ZIP",
  "InstitutionName": "DGMIF",
  "InstitutionalDepartmentName": "Department",
  "MRAcquisitionType": "2D",
  "MagneticFieldStrength": 3,
  "Manufacturer": "Siemens",
  "ManufacturersModelName": "Skyra",
  "Modality": "MR",
  "PartialFourier": 1,
  "PatientPosition": "HFS",
  "PercentPhaseFOV": 100,
  "PercentSampling": 100,
  "PhaseEncodingDirection": "i",
  "PhaseEncodingSteps": 64,
  "PhaseResolution": 1,
  "PixelBandwidth": 1815,
  "ProcedureStepDescription": "DGMIF^DGIST_Jeon",
  "ProtocolName": "EPI_DGIST_3",
  "PulseSequenceDetails": "%SiemensSeq%\\ep2d_bold",
  "ReceiveCoilActiveElements": "HC1-7",
  "ReceiveCoilName": "HeadNeck_64",
  "ReconMatrixPE": 64,
  "RepetitionTime": 2,
  "SAR": 0.113257,
  "ScanOptions": "FS",
  "ScanningSequence": "EP",
  "SequenceName": "*epfid2d1_64",
  "SequenceVariant": "SK",
  "SeriesDescription": "EPI_DGIST_3",
  "SeriesNumber": 4,
  "ShimSetting": [-9732, -13654, -8088, 348, -350, 45, -469, -132],
  "SliceThickness": 4,
  "SliceTiming": [0.99, 0, 1.0575, 0.0675, 1.1225, 0.1325, 1.1875, 0.2, 1.255, 0.265, 1.32, 0.33, 1.3875, 0.3975, 1.4525, 0.4625, 1.5175, 0.53, 1.585, 0.595, 1.65, 0.66, 1.7175, 0.7275, 1.7825, 0.7925, 1.8475, 0.8575, 1.915, 0.925],
  "SoftwareVersions": "syngo MR D13C",
  "SpacingBetweenSlices": 4.8,
  "StationName": "AWP45758",
  "TaskName": "asrt",
  "TotalReadoutTime": 0.0390594,
  "TxRefAmp": 308.469,
  "dcmmeta_affine": [
    [-2.9997644424438477, -0.03665086254477501, 0.013416069559752941, 95.2886962890625],
    [-0.03736112639307976, 2.980757713317871, -0.5394825339317322, -111.65922546386719],
    [0.004211990162730217, 0.33725452423095703, 4.769567966461182, -68.97117614746094],
    [0.0, 0.0, 0.0, 1.0]
],
  "dcmmeta_reorient_transform": [
    [0.0, -1.0, 0.0, 63.0],
    [1.0, 0.0, 0.0, 0.0],
    [0.0, 0.0, 1.0, 0.0],
    [0.0, 0.0, 0.0, 1.0]
],
  "dcmmeta_shape": [64, 64, 30, 364],
  "dcmmeta_slice_dim": 2,
  "dcmmeta_version": 0.6,
  "global": {
    "const": {
      "AcquisitionMatrix": [0, 64, 64, 0],
      "AngioFlag": "N",
      "BitsAllocated": 16,
      "BitsStored": 12,
      "BodyPartExamined": "BRAIN",
      "Columns": 384,
      "EchoNumbers": 1,
      "EchoTime": 30.0,
      "EchoTrainLength": 64,
      "FlipAngle": 90.0,
      "HighBit": 11,
      "ImageOrientationPatient": [0.99992146388373, 0.01245370860265, 0.00140399667678, -0.0122169537423, 0.9935858794799, -0.1124181753073],
      "ImagePositionPatient": [-567.07785669747, -559.02750688289, 5.5626628323128],
      "ImageType": [
        "ORIGINAL",
        "PRIMARY",
        "M",
        "ND",
        "MOSAIC"
],
      "ImagedNucleus": "1H",
      "ImagingFrequency": 123.200191,
      "InPlanePhaseEncodingDirection": "ROW",
      "MRAcquisitionType": "2D",
      "MagneticFieldStrength": 3.0,
      "Manufacturer": "SIEMENS",
      "ManufacturerModelName": "Skyra",
      "Modality": "MR",
      "NumberOfAverages": 1.0,
      "NumberOfPhaseEncodingSteps": 64,
      "PercentPhaseFieldOfView": 100.0,
      "PercentSampling": 100.0,
      "PerformedProcedureStepStartTime": "105417.296000",
      "PhotometricInterpretation": "MONOCHROME2",
      "PixelBandwidth": 1815.0,
      "PixelRepresentation": 0,
      "PixelSpacing": [3.0, 3.0],
      "ProtocolName": "EPI_DGIST_3",
      "RepetitionTime": 2000.0,
      "Rows": 384,
      "SAR": 0.11325682269057,
      "SamplesPerPixel": 1,
      "ScanOptions": "FS",
      "ScanningSequence": "EP",
      "SequenceName": "*epfid2d1_64",
      "SequenceVariant": "SK",
      "SeriesDescription": "EPI_DGIST_3",
      "SeriesNumber": 4,
      "SeriesTime": "113233.355000",
      "SliceLocation": -55.717941596791,
      "SliceThickness": 4.0,
      "SmallestImagePixelValue": 0,
      "SoftwareVersions": "syngo MR D13C",
      "SpacingBetweenSlices": 4.7999999866375,
      "SpecificCharacterSet": "ISO_IR 100",
      "StudyID": "1",
      "StudyTime": "105417.233000",
      "TimeOfLastCalibration": ["123723.000000", "123723.000000"],
      "TransmitCoilName": "Body",
      "VariableFlipAngleFlag": "N",
      "WindowCenterWidthExplanation": "Algo1",
      "dBdt": 0.0},
    "slices": {}
  },
  "time": {
    "samples": {
      "AcquisitionNumber": [1, 2, 3, 4, 5, 6, 7, 8, 9, 10, 11, 12, 13, 14, 15, 16, 17, 18, 19, 20, 21, 22, 23, 24, 25, 26, 27, 28, 29, 30, 31, 32, 33, 34, 35, 36, 37, 38, 39, 40, 41, 42, 43, 44, 45, 46, 47, 48, 49, 50, 51, 52, 53, 54, 55, 56, 57, 58, 59, 60, 61, 62, 63, 64, 65, 66, 67, 68, 69, 70, 71, 72, 73, 74, 75, 76, 77, 78, 79, 80, 81, 82, 83, 84, 85, 86, 87, 88, 89, 90, 91, 92, 93, 94, 95, 96, 97, 98, 99, 100, 101, 102, 103, 104, 105, 106, 107, 108, 109, 110, 111, 112, 113, 114, 115, 116, 117, 118, 119, 120, 121, 122, 123, 124, 125, 126, 127, 128, 129, 130, 131, 132, 133, 134, 135, 136, 137, 138, 139, 140, 141, 142, 143, 144, 145, 146, 147, 148, 149, 150, 151, 152, 153, 154, 155, 156, 157, 158, 159, 160, 161, 162, 163, 164, 165, 166, 167, 168, 169, 170, 171, 172, 173, 174, 175, 176, 177, 178, 179, 180, 181, 182, 183, 184, 185, 186, 187, 188, 189, 190, 191, 192, 193, 194, 195, 196, 197, 198, 199, 200, 201, 202, 203, 204, 205, 206, 207, 208, 209, 210, 211, 212, 213, 214, 215, 216, 217, 218, 219, 220, 221, 222, 223, 224, 225, 226, 227, 228, 229, 230, 231, 232, 233, 234, 235, 236, 237, 238, 239, 240, 241, 242, 243, 244, 245, 246, 247, 248, 249, 250, 251, 252, 253, 254, 255, 256, 257, 258, 259, 260, 261, 262, 263, 264, 265, 266, 267, 268, 269, 270, 271, 272, 273, 274, 275, 276, 277, 278, 279, 280, 281, 282, 283, 284, 285, 286, 287, 288, 289, 290, 291, 292, 293, 294, 295, 296, 297, 298, 299, 300, 301, 302, 303, 304, 305, 306, 307, 308, 309, 310, 311, 312, 313, 314, 315, 316, 317, 318, 319, 320, 321, 322, 323, 324, 325, 326, 327, 328, 329, 330, 331, 332, 333, 334, 335, 336, 337, 338, 339, 340, 341, 342, 343, 344, 345, 346, 347, 348, 349, 350, 351, 352, 353, 354, 355, 356, 357, 358, 359, 360, 361, 362, 363, 364],
      "AcquisitionTime": ["113141.417500", "113143.417500", "113145.417500", "113147.417500", "113149.417500", "113151.417500", "113153.417500", "113155.417500", "113157.417500", "113159.417500", "113201.417500", "113203.417500", "113205.417500", "113207.417500", "113209.417500", "113211.417500", "113213.417500", "113215.417500", "113217.417500", "113219.417500", "113221.417500", "113223.417500", "113225.417500", "113227.417500", "113229.417500", "113231.417500", "113233.417500", "113235.417500", "113237.417500", "113239.417500", "113241.417500", "113243.417500", "113245.417500", "113247.417500", "113249.417500", "113251.417500", "113253.417500", "113255.417500", "113257.417500", "113259.417500", "113301.417500", "113303.417500", "113305.417500", "113307.417500", "113309.417500", "113311.417500", "113313.417500", "113315.417500", "113317.417500", "113319.417500", "113321.417500", "113323.417500", "113325.417500", "113327.417500", "113329.417500", "113331.420000", "113333.420000", "113335.420000", "113337.420000", "113339.420000", "113341.420000", "113343.420000", "113345.420000", "113347.420000", "113349.420000", "113351.420000", "113353.420000", "113355.420000", "113357.420000", "113359.420000", "113401.420000", "113403.420000", "113405.420000", "113407.420000", "113409.420000", "113411.420000", "113413.420000", "113415.420000", "113417.420000", "113419.420000", "113421.420000", "113423.420000", "113425.420000", "113427.420000", "113429.420000", "113431.420000", "113433.420000", "113435.420000", "113437.420000", "113439.420000", "113441.420000", "113443.420000", "113445.420000", "113447.420000", "113449.420000", "113451.420000", "113453.420000", "113455.420000", "113457.420000", "113459.420000", "113501.420000", "113503.420000", "113505.420000", "113507.420000", "113509.420000", "113511.420000", "113513.420000", "113515.420000", "113517.420000", "113519.420000", "113521.420000", "113523.420000", "113525.420000", "113527.420000", "113529.420000", "113531.420000", "113533.420000", "113535.420000", "113537.420000", "113539.420000", "113541.420000", "113543.420000", "113545.420000", "113547.420000", "113549.420000", "113551.420000", "113553.420000", "113555.420000", "113557.420000", "113559.420000", "113601.420000", "113603.420000", "113605.420000", "113607.420000", "113609.420000", "113611.420000", "113613.420000", "113615.420000", "113617.420000", "113619.420000", "113621.420000", "113623.420000", "113625.420000", "113627.420000", "113629.420000", "113631.420000", "113633.420000", "113635.420000", "113637.420000", "113639.420000", "113641.420000", "113643.420000", "113645.420000", "113647.420000", "113649.420000", "113651.420000", "113653.420000", "113655.420000", "113657.420000", "113659.420000", "113701.420000", "113703.420000", "113705.420000", "113707.420000", "113709.420000", "113711.420000", "113713.420000", "113715.420000", "113717.420000", "113719.420000", "113721.420000", "113723.420000", "113725.420000", "113727.420000", "113729.420000", "113731.420000", "113733.420000", "113735.420000", "113737.420000", "113739.420000", "113741.420000", "113743.420000", "113745.420000", "113747.420000", "113749.420000", "113751.420000", "113753.420000", "113755.420000", "113757.420000", "113759.420000", "113801.420000", "113803.420000", "113805.420000", "113807.420000", "113809.420000", "113811.420000", "113813.420000", "113815.420000", "113817.420000", "113819.420000", "113821.420000", "113823.420000", "113825.420000", "113827.420000", "113829.420000", "113831.420000", "113833.420000", "113835.420000", "113837.420000", "113839.420000", "113841.420000", "113843.420000", "113845.420000", "113847.420000", "113849.420000", "113851.420000", "113853.420000", "113855.420000", "113857.420000", "113859.420000", "113901.420000", "113903.420000", "113905.420000", "113907.420000", "113909.420000", "113911.420000", "113913.420000", "113915.420000", "113917.420000", "113919.420000", "113921.420000", "113923.420000", "113925.420000", "113927.420000", "113929.420000", "113931.420000", "113933.420000", "113935.420000", "113937.420000", "113939.420000", "113941.420000", "113943.420000", "113945.420000", "113947.420000", "113949.420000", "113951.420000", "113953.420000", "113955.420000", "113957.420000", "113959.420000", "114001.420000", "114003.420000", "114005.420000", "114007.420000", "114009.420000", "114011.420000", "114013.420000", "114015.420000", "114017.420000", "114019.420000", "114021.420000", "114023.420000", "114025.420000", "114027.420000", "114029.420000", "114031.420000", "114033.420000", "114035.420000", "114037.420000", "114039.420000", "114041.420000", "114043.420000", "114045.420000", "114047.420000", "114049.420000", "114051.420000", "114053.420000", "114055.420000", "114057.420000", "114059.420000", "114101.420000", "114103.420000", "114105.420000", "114107.420000", "114109.420000", "114111.420000", "114113.420000", "114115.420000", "114117.420000", "114119.420000", "114121.420000", "114123.420000", "114125.420000", "114127.420000", "114129.420000", "114131.420000", "114133.420000", "114135.420000", "114137.420000", "114139.420000", "114141.420000", "114143.420000", "114145.420000", "114147.420000", "114149.420000", "114151.422500", "114153.422500", "114155.422500", "114157.422500", "114159.422500", "114201.422500", "114203.422500", "114205.422500", "114207.422500", "114209.422500", "114211.422500", "114213.422500", "114215.422500", "114217.422500", "114219.422500", "114221.422500", "114223.422500", "114225.422500", "114227.422500", "114229.422500", "114231.422500", "114233.422500", "114235.422500", "114237.422500", "114239.422500", "114241.422500", "114243.422500", "114245.422500", "114247.422500", "114249.422500", "114251.422500", "114253.422500", "114255.422500", "114257.422500", "114259.422500", "114301.422500", "114303.422500", "114305.422500", "114307.422500", "114309.422500", "114311.422500", "114313.422500", "114315.422500", "114317.422500", "114319.422500", "114321.422500", "114323.422500", "114325.422500", "114327.422500", "114329.422500", "114331.422500", "114333.422500", "114335.422500", "114337.422500", "114339.422500", "114341.422500", "114343.422500", "114345.422500", "114347.422500"],
      "ContentTime": ["113233.358000", "113233.360000", "113233.362000", "113233.364000", "113233.366000", "113233.368000", "113233.370000", "113233.372000", "113233.374000", "113233.376000", "113233.378000", "113233.380000", "113233.382000", "113233.384000", "113233.386000", "113233.388000", "113233.390000", "113233.391000", "113233.393000", "113233.395000", "113233.397000", "113233.416000", "113233.418000", "113233.426000", "113233.428000", "113233.430000", "113313.354000", "113313.356000", "113313.358000", "113313.360000", "113313.362000", "113313.364000", "113313.366000", "113313.368000", "113313.370000", "113313.372000", "113313.374000", "113313.376000", "113313.378000", "113313.379000", "113313.381000", "113313.383000", "113313.385000", "113313.387000", "113313.389000", "113313.391000", "113353.354000", "113353.356000", "113353.358000", "113353.360000", "113353.362000", "113353.364000", "113353.366000", "113353.368000", "113353.370000", "113353.372000", "113353.374000", "113353.375000", "113353.377000", "113353.379000", "113353.381000", "113353.383000", "113353.385000", "113353.387000", "113353.389000", "113353.391000", "113433.354000", "113433.356000", "113433.358000", "113433.360000", "113433.362000", "113433.364000", "113433.366000", "113433.368000", "113433.370000", "113433.372000", "113433.374000", "113433.376000", "113433.377000", "113433.379000", "113433.381000", "113433.383000", "113433.385000", "113433.387000", "113433.389000", "113433.391000", "113513.353000", "113513.355000", "113513.357000", "113513.362000", "113513.364000", "113513.366000", "113513.368000", "113513.370000", "113513.372000", "113513.374000", "113513.376000", "113513.377000", "113513.379000", "113513.381000", "113513.383000", "113513.385000", "113513.387000", "113513.389000", "113513.391000", "113513.393000", "113553.354000", "113553.356000", "113553.358000", "113553.360000", "113553.362000", "113553.364000", "113553.366000", "113553.368000", "113553.370000", "113553.372000", "113553.374000", "113553.376000", "113553.378000", "113553.380000", "113553.382000", "113553.383000", "113553.385000", "113553.387000", "113553.389000", "113553.391000", "113633.354000", "113633.356000", "113633.358000", "113633.360000", "113633.362000", "113633.364000", "113633.366000", "113633.368000", "113633.374000", "113633.376000", "113633.378000", "113633.380000", "113633.382000", "113633.384000", "113633.386000", "113633.388000", "113633.390000", "113633.392000", "113633.394000", "113633.396000", "113713.353000", "113713.355000", "113713.357000", "113713.359000", "113713.361000", "113713.363000", "113713.365000", "113713.367000", "113713.369000", "113713.371000", "113713.373000", "113713.375000", "113713.377000", "113713.378000", "113713.380000", "113713.382000", "113713.384000", "113713.386000", "113713.388000", "113713.390000", "113753.354000", "113753.356000", "113753.358000", "113753.360000", "113753.362000", "113753.364000", "113753.366000", "113753.368000", "113753.370000", "113753.372000", "113753.374000", "113753.376000", "113753.378000", "113753.380000", "113753.382000", "113753.383000", "113753.385000", "113753.387000", "113753.389000", "113753.391000", "113833.354000", "113833.356000", "113833.358000", "113833.360000", "113833.362000", "113833.364000", "113833.366000", "113833.368000", "113833.370000", "113833.372000", "113833.374000", "113833.376000", "113833.378000", "113833.380000", "113833.382000", "113833.383000", "113833.385000", "113833.387000", "113833.389000", "113833.391000", "113913.354000", "113913.356000", "113913.358000", "113913.360000", "113913.362000", "113913.364000", "113913.366000", "113913.368000", "113913.370000", "113913.372000", "113913.374000", "113913.376000", "113913.378000", "113913.380000", "113913.382000", "113913.384000", "113913.385000", "113913.387000", "113913.389000", "113913.391000", "113953.353000", "113953.355000", "113953.357000", "113953.359000", "113953.361000", "113953.363000", "113953.365000", "113953.367000", "113953.369000", "113953.371000", "113953.373000", "113953.375000", "113953.377000", "113953.379000", "113953.381000", "113953.383000", "113953.385000", "113953.386000", "113953.388000", "113953.390000", "114033.354000", "114033.356000", "114033.358000", "114033.360000", "114033.362000", "114033.364000", "114033.366000", "114033.368000", "114033.370000", "114033.372000", "114033.374000", "114033.376000", "114033.378000", "114033.380000", "114033.382000", "114033.384000", "114033.385000", "114033.387000", "114033.389000", "114033.391000", "114113.354000", "114113.359000", "114113.360000", "114113.362000", "114113.364000", "114113.366000", "114113.368000", "114113.370000", "114113.372000", "114113.374000", "114113.376000", "114113.378000", "114113.380000", "114113.382000", "114113.384000", "114113.386000", "114113.388000", "114113.390000", "114113.392000", "114113.394000", "114153.353000", "114153.355000", "114153.357000", "114153.359000", "114153.361000", "114153.363000", "114153.365000", "114153.367000", "114153.369000", "114153.371000", "114153.373000", "114153.375000", "114153.377000", "114153.379000", "114153.381000", "114153.383000", "114153.384000", "114153.386000", "114153.388000", "114153.390000", "114233.354000", "114233.356000", "114233.358000", "114233.360000", "114233.362000", "114233.364000", "114233.366000", "114233.368000", "114233.370000", "114233.372000", "114233.374000", "114233.376000", "114233.378000", "114233.380000", "114233.382000", "114233.384000", "114233.385000", "114233.387000", "114233.389000", "114233.391000", "114313.354000", "114313.356000", "114313.358000", "114313.360000", "114313.362000", "114313.364000", "114313.366000", "114313.368000", "114313.370000", "114313.372000", "114313.374000", "114313.376000", "114313.378000", "114313.380000", "114313.382000", "114313.384000", "114313.386000", "114313.388000", "114313.390000", "114313.392000", "114348.410000", "114348.412000", "114348.414000", "114348.416000", "114348.418000", "114348.420000", "114348.422000", "114348.423000", "114348.425000", "114348.427000", "114348.429000", "114348.431000", "114348.433000", "114348.435000", "114348.439000", "114348.441000", "114348.444000", "114348.446000"],
      "InstanceCreationTime": ["113233.358000", "113233.360000", "113233.362000", "113233.364000", "113233.366000", "113233.368000", "113233.370000", "113233.372000", "113233.374000", "113233.376000", "113233.378000", "113233.380000", "113233.382000", "113233.384000", "113233.386000", "113233.388000", "113233.390000", "113233.391000", "113233.393000", "113233.395000", "113233.397000", "113233.416000", "113233.418000", "113233.426000", "113233.428000", "113233.430000", "113313.354000", "113313.356000", "113313.358000", "113313.360000", "113313.362000", "113313.364000", "113313.366000", "113313.368000", "113313.370000", "113313.372000", "113313.374000", "113313.376000", "113313.378000", "113313.379000", "113313.381000", "113313.383000", "113313.385000", "113313.387000", "113313.389000", "113313.391000", "113353.354000", "113353.356000", "113353.358000", "113353.360000", "113353.362000", "113353.364000", "113353.366000", "113353.368000", "113353.370000", "113353.372000", "113353.374000", "113353.375000", "113353.377000", "113353.379000", "113353.381000", "113353.383000", "113353.385000", "113353.387000", "113353.389000", "113353.391000", "113433.354000", "113433.356000", "113433.358000", "113433.360000", "113433.362000", "113433.364000", "113433.366000", "113433.368000", "113433.370000", "113433.372000", "113433.374000", "113433.376000", "113433.377000", "113433.379000", "113433.381000", "113433.383000", "113433.385000", "113433.387000", "113433.389000", "113433.391000", "113513.353000", "113513.355000", "113513.357000", "113513.362000", "113513.364000", "113513.366000", "113513.368000", "113513.370000", "113513.372000", "113513.374000", "113513.376000", "113513.377000", "113513.379000", "113513.381000", "113513.383000", "113513.385000", "113513.387000", "113513.389000", "113513.391000", "113513.393000", "113553.354000", "113553.356000", "113553.358000", "113553.360000", "113553.362000", "113553.364000", "113553.366000", "113553.368000", "113553.370000", "113553.372000", "113553.374000", "113553.376000", "113553.378000", "113553.380000", "113553.382000", "113553.383000", "113553.385000", "113553.387000", "113553.389000", "113553.391000", "113633.354000", "113633.356000", "113633.358000", "113633.360000", "113633.362000", "113633.364000", "113633.366000", "113633.368000", "113633.374000", "113633.376000", "113633.378000", "113633.380000", "113633.382000", "113633.384000", "113633.386000", "113633.388000", "113633.390000", "113633.392000", "113633.394000", "113633.396000", "113713.353000", "113713.355000", "113713.357000", "113713.359000", "113713.361000", "113713.363000", "113713.365000", "113713.367000", "113713.369000", "113713.371000", "113713.373000", "113713.375000", "113713.377000", "113713.378000", "113713.380000", "113713.382000", "113713.384000", "113713.386000", "113713.388000", "113713.390000", "113753.354000", "113753.356000", "113753.358000", "113753.360000", "113753.362000", "113753.364000", "113753.366000", "113753.368000", "113753.370000", "113753.372000", "113753.374000", "113753.376000", "113753.378000", "113753.380000", "113753.382000", "113753.383000", "113753.385000", "113753.387000", "113753.389000", "113753.391000", "113833.354000", "113833.356000", "113833.358000", "113833.360000", "113833.362000", "113833.364000", "113833.366000", "113833.368000", "113833.370000", "113833.372000", "113833.374000", "113833.376000", "113833.378000", "113833.380000", "113833.382000", "113833.383000", "113833.385000", "113833.387000", "113833.389000", "113833.391000", "113913.354000", "113913.356000", "113913.358000", "113913.360000", "113913.362000", "113913.364000", "113913.366000", "113913.368000", "113913.370000", "113913.372000", "113913.374000", "113913.376000", "113913.378000", "113913.380000", "113913.382000", "113913.384000", "113913.385000", "113913.387000", "113913.389000", "113913.391000", "113953.353000", "113953.355000", "113953.357000", "113953.359000", "113953.361000", "113953.363000", "113953.365000", "113953.367000", "113953.369000", "113953.371000", "113953.373000", "113953.375000", "113953.377000", "113953.379000", "113953.381000", "113953.383000", "113953.385000", "113953.386000", "113953.388000", "113953.390000", "114033.354000", "114033.356000", "114033.358000", "114033.360000", "114033.362000", "114033.364000", "114033.366000", "114033.368000", "114033.370000", "114033.372000", "114033.374000", "114033.376000", "114033.378000", "114033.380000", "114033.382000", "114033.384000", "114033.385000", "114033.387000", "114033.389000", "114033.391000", "114113.354000", "114113.359000", "114113.360000", "114113.362000", "114113.364000", "114113.366000", "114113.368000", "114113.370000", "114113.372000", "114113.374000", "114113.376000", "114113.378000", "114113.380000", "114113.382000", "114113.384000", "114113.386000", "114113.388000", "114113.390000", "114113.392000", "114113.394000", "114153.353000", "114153.355000", "114153.357000", "114153.359000", "114153.361000", "114153.363000", "114153.365000", "114153.367000", "114153.369000", "114153.371000", "114153.373000", "114153.375000", "114153.377000", "114153.379000", "114153.381000", "114153.383000", "114153.384000", "114153.386000", "114153.388000", "114153.390000", "114233.354000", "114233.356000", "114233.358000", "114233.360000", "114233.362000", "114233.364000", "114233.366000", "114233.368000", "114233.370000", "114233.372000", "114233.374000", "114233.376000", "114233.378000", "114233.380000", "114233.382000", "114233.384000", "114233.385000", "114233.387000", "114233.389000", "114233.391000", "114313.354000", "114313.356000", "114313.358000", "114313.360000", "114313.362000", "114313.364000", "114313.366000", "114313.368000", "114313.370000", "114313.372000", "114313.374000", "114313.376000", "114313.378000", "114313.380000", "114313.382000", "114313.384000", "114313.386000", "114313.388000", "114313.390000", "114313.392000", "114348.410000", "114348.412000", "114348.414000", "114348.416000", "114348.418000", "114348.420000", "114348.422000", "114348.423000", "114348.425000", "114348.427000", "114348.429000", "114348.431000", "114348.433000", "114348.435000", "114348.439000", "114348.441000", "114348.444000", "114348.446000"],
      "InstanceNumber": [1, 2, 3, 4, 5, 6, 7, 8, 9, 10, 11, 12, 13, 14, 15, 16, 17, 18, 19, 20, 21, 22, 23, 24, 25, 26, 27, 28, 29, 30, 31, 32, 33, 34, 35, 36, 37, 38, 39, 40, 41, 42, 43, 44, 45, 46, 47, 48, 49, 50, 51, 52, 53, 54, 55, 56, 57, 58, 59, 60, 61, 62, 63, 64, 65, 66, 67, 68, 69, 70, 71, 72, 73, 74, 75, 76, 77, 78, 79, 80, 81, 82, 83, 84, 85, 86, 87, 88, 89, 90, 91, 92, 93, 94, 95, 96, 97, 98, 99, 100, 101, 102, 103, 104, 105, 106, 107, 108, 109, 110, 111, 112, 113, 114, 115, 116, 117, 118, 119, 120, 121, 122, 123, 124, 125, 126, 127, 128, 129, 130, 131, 132, 133, 134, 135, 136, 137, 138, 139, 140, 141, 142, 143, 144, 145, 146, 147, 148, 149, 150, 151, 152, 153, 154, 155, 156, 157, 158, 159, 160, 161, 162, 163, 164, 165, 166, 167, 168, 169, 170, 171, 172, 173, 174, 175, 176, 177, 178, 179, 180, 181, 182, 183, 184, 185, 186, 187, 188, 189, 190, 191, 192, 193, 194, 195, 196, 197, 198, 199, 200, 201, 202, 203, 204, 205, 206, 207, 208, 209, 210, 211, 212, 213, 214, 215, 216, 217, 218, 219, 220, 221, 222, 223, 224, 225, 226, 227, 228, 229, 230, 231, 232, 233, 234, 235, 236, 237, 238, 239, 240, 241, 242, 243, 244, 245, 246, 247, 248, 249, 250, 251, 252, 253, 254, 255, 256, 257, 258, 259, 260, 261, 262, 263, 264, 265, 266, 267, 268, 269, 270, 271, 272, 273, 274, 275, 276, 277, 278, 279, 280, 281, 282, 283, 284, 285, 286, 287, 288, 289, 290, 291, 292, 293, 294, 295, 296, 297, 298, 299, 300, 301, 302, 303, 304, 305, 306, 307, 308, 309, 310, 311, 312, 313, 314, 315, 316, 317, 318, 319, 320, 321, 322, 323, 324, 325, 326, 327, 328, 329, 330, 331, 332, 333, 334, 335, 336, 337, 338, 339, 340, 341, 342, 343, 344, 345, 346, 347, 348, 349, 350, 351, 352, 353, 354, 355, 356, 357, 358, 359, 360, 361, 362, 363, 364],
      "LargestImagePixelValue": [2624, 2549, 2560, 2507, 2493, 2503, 2515, 2537, 2482, 2495, 2492, 2501, 2501, 2491, 2504, 2557, 2514, 2502, 2512, 2495, 2490, 2495, 2496, 2690, 2609, 2587, 2590, 2559, 2519, 2531, 2556, 2549, 2548, 2509, 2530, 2543, 2555, 2564, 2520, 2531, 2530, 2539, 2529, 2533, 2541, 2515, 2520, 2533, 2516, 2522, 2528, 2516, 2506, 2512, 2505, 2519, 2527, 2510, 2503, 2487, 2577, 2651, 2639, 2517, 2477, 2501, 2485, 2477, 2484, 2486, 2482, 2504, 2489, 2499, 2492, 2518, 2509, 2530, 2515, 2507, 2490, 2486, 2480, 2495, 2501, 2508, 2508, 2485, 2472, 2469, 2490, 2515, 2541, 2534, 2492, 2483, 2488, 2497, 2508, 2488, 2487, 2520, 2494, 2509, 2464, 2504, 2519, 2502, 2453, 2491, 2488, 2488, 2491, 2481, 2475, 2484, 2507, 2641, 2622, 2611, 2696, 2639, 2623, 2518, 2483, 2513, 2519, 2512, 2512, 2521, 2508, 2503, 2500, 2502, 2536, 2511, 2527, 2499, 2494, 2495, 2499, 2511, 2502, 2520, 2495, 2513, 2508, 2487, 2480, 2508, 2502, 2529, 2570, 2531, 2507, 2506, 2520, 2490, 2496, 2494, 2503, 2485, 2482, 2484, 2541, 2518, 2522, 2489, 2478, 2497, 2470, 2471, 2480, 2477, 2489, 2486, 2478, 2489, 2498, 2482, 2479, 2511, 2534, 2506, 2499, 2508, 2492, 2521, 2494, 2512, 2505, 2524, 2491, 2495, 2497, 2494, 2501, 2501, 2480, 2477, 2477, 2493, 2473, 2497, 2495, 2500, 2503, 2491, 2474, 2487, 2618, 2498, 2463, 2512, 2519, 2552, 2530, 2578, 2629, 2599, 2603, 2544, 2539, 2529, 2531, 2514, 2530, 2550, 2541, 2553, 2537, 2544, 2525, 2521, 2519, 2506, 2505, 2518, 2529, 2541, 2547, 2514, 2497, 2501, 2497, 2494, 2503, 2510, 2508, 2480, 2497, 2500, 2483, 2498, 2497, 2496, 2504, 2516, 2480, 2521, 2562, 2553, 2548, 2557, 2567, 2553, 2533, 2519, 2525, 2535, 2532, 2517, 2531, 2525, 2498, 2519, 2516, 2509, 2497, 2478, 2518, 2494, 2500, 2500, 2545, 2745, 2659, 2642, 2650, 2649, 2554, 2533, 2507, 2504, 2486, 2521, 2561, 2545, 2546, 2534, 2524, 2520, 2515, 2529, 2531, 2500, 2631, 2567, 2537, 2540, 2531, 2546, 2548, 2529, 2515, 2540, 2528, 2545, 2537, 2514, 2546, 2610, 2568, 2498, 2606, 2654, 2596, 2636, 2643, 2651, 2696, 2639, 2637, 2656, 2662, 2749, 2687, 2688, 2665, 2638, 2647, 2635, 2671, 2662, 2675, 2724, 2681, 2616, 2578, 2517, 2628, 2657, 2629, 2633, 2634, 2642, 2721, 2729, 2699, 2629, 2676, 2654, 2681, 2616],
