{
  "AcquisitionMatrixPE": 64,
  "AcquisitionNumber": 1,
  "AcquisitionTime": "14:37:55.042500",
  "BandwidthPerPixelPhaseEncode": 25.202,
  "BaseResolution": 64,
  "BodyPartExamined": "BRAIN",
  "ConsistencyInfo": "N4_VE11C_LATEST_20160120",
  "ConversionSoftware": "dcm2niix",
  "ConversionSoftwareVersion": "v1.0.20201102",
  "DerivedVendorReportedEchoSpacing": 0.00061999,
  "DeviceSerialNumber": "45758",
  "DwellTime": 4.3e-06,
  "EchoTime": 0.03,
  "EchoTrainLength": 64,
  "EffectiveEchoSpacing": 0.00061999,
  "FlipAngle": 90,
  "ImageOrientationPatientDICOM": [0.995584, -0.0516807, 0.078368, 0.0521763, 0.998629, -0.00428832],
  "ImageType": [
    "ORIGINAL",
    "PRIMARY",
    "M",
    "ND",
    "MOSAIC"
],
  "ImagingFrequency": 123.2,
  "InPlanePhaseEncodingDirectionDICOM": "ROW",
  "InstitutionAddress": "Street StreetNo,City /652E4B/,District,KR,ZIP",
  "InstitutionName": "DGMIF",
  "InstitutionalDepartmentName": "Department",
  "MRAcquisitionType": "2D",
  "MagneticFieldStrength": 3,
  "Manufacturer": "Siemens",
  "ManufacturersModelName": "Skyra",
  "Modality": "MR",
  "PartialFourier": 1,
  "PatientPosition": "HFS",
  "PercentPhaseFOV": 100,
  "PercentSampling": 100,
  "PhaseEncodingDirection": "i",
  "PhaseEncodingSteps": 64,
  "PhaseResolution": 1,
  "PixelBandwidth": 1815,
  "ProcedureStepDescription": "DGMIF^DGIST",
  "ProtocolName": "EPI_DGIST_2",
  "PulseSequenceDetails": "%SiemensSeq%\\ep2d_bold",
  "ReceiveCoilActiveElements": "HC1-7",
  "ReceiveCoilName": "HeadNeck_64",
  "ReconMatrixPE": 64,
  "RepetitionTime": 2,
  "SAR": 0.126972,
  "ScanOptions": "FS",
  "ScanningSequence": "EP",
  "SequenceName": "*epfid2d1_64",
  "SequenceVariant": "SK",
  "SeriesDescription": "EPI_DGIST_2",
  "SeriesNumber": 3,
  "ShimSetting": [-9717, -13630, -8270, 343, -466, -608, -437, -304],
  "SliceThickness": 4,
  "SliceTiming": [0.99, 0, 1.0575, 0.0675, 1.1225, 0.1325, 1.19, 0.2, 1.255, 0.265, 1.32, 0.33, 1.3875, 0.3975, 1.4525, 0.4625, 1.52, 0.53, 1.585, 0.595, 1.65, 0.66, 1.7175, 0.7275, 1.7825, 0.7925, 1.85, 0.86, 1.915, 0.925],
  "SoftwareVersions": "syngo MR E11",
  "SpacingBetweenSlices": 4.8,
  "StationName": "AWP45758",
  "TaskName": "asrt",
  "TotalReadoutTime": 0.0390594,
  "TxRefAmp": 321.881,
  "dcmmeta_affine": [
    [-2.9867520332336426, 0.156529039144516, 0.37458696961402893, 87.67976379394531],
    [0.15504221618175507, 2.9958860874176025, -0.040120046585798264, -124.15106201171875],
    [0.23510412871837616, 0.012864965945482254, 4.78519344329834, -92.10333251953125],
    [0.0, 0.0, 0.0, 1.0]
],
  "dcmmeta_reorient_transform": [
    [0.0, -1.0, 0.0, 63.0],
    [1.0, 0.0, 0.0, 0.0],
    [0.0, 0.0, 1.0, 0.0],
    [0.0, 0.0, 0.0, 1.0]
],
  "dcmmeta_shape": [64, 64, 30, 364],
  "dcmmeta_slice_dim": 2,
  "dcmmeta_version": 0.6,
  "global": {
    "const": {
      "AcquisitionMatrix": [0, 64, 64, 0],
      "AngioFlag": "N",
      "BitsAllocated": 16,
      "BitsStored": 12,
      "BodyPartExamined": "BRAIN",
      "Columns": 384,
      "EchoNumbers": 1,
      "EchoTime": 30.0,
      "EchoTrainLength": 64,
      "FlipAngle": 90.0,
      "HighBit": 11,
      "ImageOrientationPatient": [0.99558402491868, -0.0516807398337, 0.07836804487131, 0.05217634582145, 0.99862867935546, -0.0042883219906],
      "ImagePositionPatient": [-600.466071626, -519.12476577376, -126.8511032406],
      "ImageType": [
        "ORIGINAL",
        "PRIMARY",
        "M",
        "ND",
        "MOSAIC"
],
      "ImagedNucleus": "1H",
      "ImagingFrequency": 123.200185,
      "InPlanePhaseEncodingDirection": "ROW",
      "MRAcquisitionType": "2D",
      "MagneticFieldStrength": 3.0,
      "Manufacturer": "SIEMENS",
      "ManufacturerModelName": "Skyra",
      "Modality": "MR",
      "NumberOfAverages": 1.0,
      "NumberOfPhaseEncodingSteps": 64,
      "PercentPhaseFieldOfView": 100.0,
      "PercentSampling": 100.0,
      "PerformedProcedureStepStartTime": "141447.800000",
      "PhotometricInterpretation": "MONOCHROME2",
      "PixelBandwidth": 1815.0,
      "PixelRepresentation": 0,
      "PixelSpacing": [3.0, 3.0],
      "ProtocolName": "EPI_DGIST_2",
      "RepetitionTime": 2000.0,
      "Rows": 384,
      "SAR": 0.12697232513662,
      "SamplesPerPixel": 1,
      "ScanOptions": "FS",
      "ScanningSequence": "EP",
      "SequenceName": "*epfid2d1_64",
      "SequenceVariant": "SK",
      "SeriesDescription": "EPI_DGIST_2",
      "SeriesNumber": 3,
      "SeriesTime": "143846.128000",
      "SliceLocation": -83.939081159612,
      "SliceThickness": 4.0,
      "SmallestImagePixelValue": 0,
      "SoftwareVersions": "syngo MR E11",
      "SpacingBetweenSlices": 4.7999999061834,
      "SpecificCharacterSet": "ISO_IR 100",
      "StudyID": "1",
      "StudyTime": "141447.754000",
      "TransmitCoilName": "Body",
      "VariableFlipAngleFlag": "N",
      "WindowCenterWidthExplanation": "Algo1",
      "dBdt": 0.0},
    "slices": {}
  },
  "time": {
    "samples": {
      "AcquisitionNumber": [1, 2, 3, 4, 5, 6, 7, 8, 9, 10, 11, 12, 13, 14, 15, 16, 17, 18, 19, 20, 21, 22, 23, 24, 25, 26, 27, 28, 29, 30, 31, 32, 33, 34, 35, 36, 37, 38, 39, 40, 41, 42, 43, 44, 45, 46, 47, 48, 49, 50, 51, 52, 53, 54, 55, 56, 57, 58, 59, 60, 61, 62, 63, 64, 65, 66, 67, 68, 69, 70, 71, 72, 73, 74, 75, 76, 77, 78, 79, 80, 81, 82, 83, 84, 85, 86, 87, 88, 89, 90, 91, 92, 93, 94, 95, 96, 97, 98, 99, 100, 101, 102, 103, 104, 105, 106, 107, 108, 109, 110, 111, 112, 113, 114, 115, 116, 117, 118, 119, 120, 121, 122, 123, 124, 125, 126, 127, 128, 129, 130, 131, 132, 133, 134, 135, 136, 137, 138, 139, 140, 141, 142, 143, 144, 145, 146, 147, 148, 149, 150, 151, 152, 153, 154, 155, 156, 157, 158, 159, 160, 161, 162, 163, 164, 165, 166, 167, 168, 169, 170, 171, 172, 173, 174, 175, 176, 177, 178, 179, 180, 181, 182, 183, 184, 185, 186, 187, 188, 189, 190, 191, 192, 193, 194, 195, 196, 197, 198, 199, 200, 201, 202, 203, 204, 205, 206, 207, 208, 209, 210, 211, 212, 213, 214, 215, 216, 217, 218, 219, 220, 221, 222, 223, 224, 225, 226, 227, 228, 229, 230, 231, 232, 233, 234, 235, 236, 237, 238, 239, 240, 241, 242, 243, 244, 245, 246, 247, 248, 249, 250, 251, 252, 253, 254, 255, 256, 257, 258, 259, 260, 261, 262, 263, 264, 265, 266, 267, 268, 269, 270, 271, 272, 273, 274, 275, 276, 277, 278, 279, 280, 281, 282, 283, 284, 285, 286, 287, 288, 289, 290, 291, 292, 293, 294, 295, 296, 297, 298, 299, 300, 301, 302, 303, 304, 305, 306, 307, 308, 309, 310, 311, 312, 313, 314, 315, 316, 317, 318, 319, 320, 321, 322, 323, 324, 325, 326, 327, 328, 329, 330, 331, 332, 333, 334, 335, 336, 337, 338, 339, 340, 341, 342, 343, 344, 345, 346, 347, 348, 349, 350, 351, 352, 353, 354, 355, 356, 357, 358, 359, 360, 361, 362, 363, 364],
      "AcquisitionTime": ["143755.042500", "143757.042500", "143759.042500", "143801.042500", "143803.042500", "143805.042500", "143807.042500", "143809.042500", "143811.042500", "143813.042500", "143815.042500", "143817.042500", "143819.042500", "143821.042500", "143823.042500", "143825.042500", "143827.042500", "143829.042500", "143831.042500", "143833.042500", "143835.042500", "143837.042500", "143839.042500", "143841.042500", "143843.042500", "143845.042500", "143847.042500", "143849.042500", "143851.042500", "143853.042500", "143855.042500", "143857.042500", "143859.042500", "143901.042500", "143903.042500", "143905.042500", "143907.042500", "143909.042500", "143911.042500", "143913.042500", "143915.042500", "143917.042500", "143919.042500", "143921.042500", "143923.042500", "143925.042500", "143927.042500", "143929.042500", "143931.042500", "143933.042500", "143935.042500", "143937.042500", "143939.042500", "143941.042500", "143943.042500", "143945.042500", "143947.042500", "143949.042500", "143951.042500", "143953.042500", "143955.042500", "143957.042500", "143959.042500", "144001.042500", "144003.042500", "144005.042500", "144007.042500", "144009.042500", "144011.042500", "144013.042500", "144015.042500", "144017.042500", "144019.042500", "144021.042500", "144023.042500", "144025.042500", "144027.042500", "144029.042500", "144031.042500", "144033.042500", "144035.042500", "144037.042500", "144039.042500", "144041.042500", "144043.042500", "144045.042500", "144047.042500", "144049.042500", "144051.042500", "144053.042500", "144055.042500", "144057.042500", "144059.042500", "144101.042500", "144103.042500", "144105.042500", "144107.042500", "144109.042500", "144111.042500", "144113.042500", "144115.042500", "144117.042500", "144119.042500", "144121.042500", "144123.042500", "144125.042500", "144127.042500", "144129.042500", "144131.042500", "144133.042500", "144135.042500", "144137.042500", "144139.042500", "144141.042500", "144143.042500", "144145.042500", "144147.042500", "144149.042500", "144151.042500", "144153.042500", "144155.042500", "144157.042500", "144159.042500", "144201.042500", "144203.042500", "144205.042500", "144207.042500", "144209.042500", "144211.042500", "144213.042500", "144215.042500", "144217.042500", "144219.042500", "144221.042500", "144223.042500", "144225.042500", "144227.042500", "144229.042500", "144231.042500", "144233.042500", "144235.042500", "144237.042500", "144239.042500", "144241.042500", "144243.042500", "144245.042500", "144247.042500", "144249.042500", "144251.042500", "144253.042500", "144255.042500", "144257.042500", "144259.042500", "144301.042500", "144303.042500", "144305.042500", "144307.042500", "144309.042500", "144311.042500", "144313.042500", "144315.042500", "144317.042500", "144319.042500", "144321.042500", "144323.042500", "144325.042500", "144327.042500", "144329.042500", "144331.042500", "144333.042500", "144335.042500", "144337.042500", "144339.042500", "144341.042500", "144343.042500", "144345.042500", "144347.042500", "144349.042500", "144351.042500", "144353.042500", "144355.042500", "144357.042500", "144359.042500", "144401.042500", "144403.042500", "144405.042500", "144407.042500", "144409.042500", "144411.042500", "144413.042500", "144415.042500", "144417.042500", "144419.042500", "144421.042500", "144423.042500", "144425.042500", "144427.042500", "144429.042500", "144431.042500", "144433.042500", "144435.042500", "144437.042500", "144439.042500", "144441.042500", "144443.042500", "144445.042500", "144447.042500", "144449.042500", "144451.042500", "144453.042500", "144455.042500", "144457.042500", "144459.042500", "144501.042500", "144503.042500", "144505.042500", "144507.042500", "144509.042500", "144511.042500", "144513.042500", "144515.042500", "144517.042500", "144519.042500", "144521.042500", "144523.042500", "144525.042500", "144527.042500", "144529.042500", "144531.042500", "144533.042500", "144535.042500", "144537.042500", "144539.042500", "144541.042500", "144543.042500", "144545.042500", "144547.042500", "144549.042500", "144551.042500", "144553.042500", "144555.042500", "144557.042500", "144559.042500", "144601.042500", "144603.042500", "144605.042500", "144607.042500", "144609.042500", "144611.042500", "144613.042500", "144615.042500", "144617.042500", "144619.042500", "144621.042500", "144623.042500", "144625.042500", "144627.042500", "144629.042500", "144631.042500", "144633.042500", "144635.042500", "144637.042500", "144639.042500", "144641.042500", "144643.042500", "144645.042500", "144647.042500", "144649.042500", "144651.042500", "144653.042500", "144655.042500", "144657.042500", "144659.042500", "144701.042500", "144703.042500", "144705.042500", "144707.042500", "144709.042500", "144711.042500", "144713.042500", "144715.042500", "144717.042500", "144719.042500", "144721.042500", "144723.042500", "144725.042500", "144727.042500", "144729.042500", "144731.042500", "144733.042500", "144735.042500", "144737.042500", "144739.042500", "144741.042500", "144743.042500", "144745.042500", "144747.042500", "144749.042500", "144751.042500", "144753.042500", "144755.042500", "144757.042500", "144759.042500", "144801.042500", "144803.042500", "144805.042500", "144807.042500", "144809.042500", "144811.042500", "144813.042500", "144815.042500", "144817.042500", "144819.042500", "144821.042500", "144823.042500", "144825.042500", "144827.042500", "144829.042500", "144831.042500", "144833.042500", "144835.042500", "144837.042500", "144839.042500", "144841.042500", "144843.042500", "144845.042500", "144847.042500", "144849.042500", "144851.042500", "144853.042500", "144855.042500", "144857.042500", "144859.042500", "144901.042500", "144903.042500", "144905.042500", "144907.042500", "144909.042500", "144911.042500", "144913.042500", "144915.042500", "144917.042500", "144919.042500", "144921.042500", "144923.042500", "144925.042500", "144927.042500", "144929.042500", "144931.042500", "144933.042500", "144935.042500", "144937.042500", "144939.042500", "144941.042500", "144943.042500", "144945.042500", "144947.042500", "144949.042500", "144951.042500", "144953.042500", "144955.042500", "144957.042500", "144959.042500", "145001.042500"],
      "ContentTime": ["143846.131000", "143846.135000", "143846.145000", "143846.147000", "143846.150000", "143846.152000", "143846.155000", "143846.157000", "143846.160000", "143846.168000", "143846.171000", "143846.173000", "143846.176000", "143846.181000", "143846.183000", "143846.186000", "143846.189000", "143846.191000", "143846.194000", "143846.196000", "143846.199000", "143846.201000", "143846.204000", "143846.206000", "143846.209000", "143926.126000", "143926.129000", "143926.132000", "143926.134000", "143926.143000", "143926.146000", "143926.148000", "143926.151000", "143926.153000", "143926.156000", "143926.158000", "143926.179000", "143926.182000", "143926.184000", "143926.187000", "143926.189000", "143926.192000", "143926.194000", "143926.197000", "143926.199000", "144006.126000", "144006.129000", "144006.132000", "144006.134000", "144006.136000", "144006.139000", "144006.141000", "144006.144000", "144006.146000", "144006.149000", "144006.151000", "144006.228000", "144006.231000", "144006.233000", "144006.236000", "144006.239000", "144006.241000", "144006.243000", "144006.246000", "144006.248000", "144046.126000", "144046.129000", "144046.132000", "144046.134000", "144046.137000", "144046.139000", "144046.142000", "144046.144000", "144046.146000", "144046.149000", "144046.151000", "144046.154000", "144046.156000", "144046.159000", "144046.161000", "144046.164000", "144046.166000", "144046.169000", "144046.171000", "144046.174000", "144126.127000", "144126.130000", "144126.133000", "144126.135000", "144126.138000", "144126.140000", "144126.142000", "144126.145000", "144126.147000", "144126.150000", "144126.152000", "144126.155000", "144126.157000", "144126.160000", "144126.162000", "144126.165000", "144126.167000", "144126.170000", "144126.172000", "144126.175000", "144206.126000", "144206.129000", "144206.132000", "144206.134000", "144206.137000", "144206.139000", "144206.141000", "144206.144000", "144206.146000", "144206.149000", "144206.151000", "144206.154000", "144206.156000", "144206.180000", "144206.182000", "144206.200000", "144206.203000", "144206.205000", "144206.208000", "144206.210000", "144226.127000", "144226.129000", "144226.132000", "144226.134000", "144226.143000", "144226.145000", "144226.148000", "144226.150000", "144226.153000", "144226.155000", "144306.126000", "144306.129000", "144306.132000", "144306.134000", "144306.137000", "144306.139000", "144306.142000", "144306.144000", "144306.147000", "144306.149000", "144306.151000", "144306.154000", "144306.157000", "144306.159000", "144306.162000", "144306.164000", "144306.167000", "144306.169000", "144306.172000", "144306.174000", "144346.127000", "144346.130000", "144346.133000", "144346.135000", "144346.138000", "144346.140000", "144346.143000", "144346.145000", "144346.148000", "144346.150000", "144346.152000", "144346.155000", "144346.158000", "144346.160000", "144346.163000", "144346.165000", "144346.168000", "144346.170000", "144346.172000", "144346.175000", "144426.126000", "144426.129000", "144426.132000", "144426.134000", "144426.137000", "144426.139000", "144426.142000", "144426.144000", "144426.146000", "144426.149000", "144426.151000", "144426.154000", "144426.156000", "144426.159000", "144426.161000", "144426.164000", "144426.166000", "144426.169000", "144426.171000", "144426.174000", "144506.126000", "144506.129000", "144506.132000", "144506.134000", "144506.137000", "144506.139000", "144506.141000", "144506.144000", "144506.146000", "144506.149000", "144506.151000", "144506.154000", "144506.156000", "144506.159000", "144506.161000", "144506.164000", "144506.166000", "144506.169000", "144506.171000", "144506.174000", "144546.127000", "144546.130000", "144546.133000", "144546.135000", "144546.138000", "144546.140000", "144546.142000", "144546.145000", "144546.147000", "144546.150000", "144546.152000", "144546.155000", "144546.157000", "144546.160000", "144546.162000", "144546.165000", "144546.167000", "144546.170000", "144546.172000", "144546.175000", "144626.126000", "144626.129000", "144626.132000", "144626.134000", "144626.137000", "144626.139000", "144626.141000", "144626.144000", "144626.146000", "144626.149000", "144626.151000", "144626.154000", "144626.156000", "144626.187000", "144626.190000", "144626.192000", "144626.195000", "144626.197000", "144626.200000", "144626.202000", "144706.126000", "144706.129000", "144706.132000", "144706.134000", "144706.137000", "144706.139000", "144706.142000", "144706.144000", "144706.147000", "144706.149000", "144706.152000", "144706.154000", "144706.157000", "144706.159000", "144706.162000", "144706.164000", "144706.167000", "144706.169000", "144706.172000", "144706.174000", "144746.127000", "144746.129000", "144746.132000", "144746.134000", "144746.137000", "144746.139000", "144746.142000", "144746.144000", "144746.147000", "144746.149000", "144746.151000", "144746.154000", "144746.156000", "144746.159000", "144746.161000", "144746.164000", "144746.166000", "144746.169000", "144746.171000", "144746.174000", "144826.127000", "144826.130000", "144826.133000", "144826.135000", "144826.138000", "144826.140000", "144826.143000", "144826.145000", "144826.147000", "144826.150000", "144826.152000", "144826.155000", "144826.157000", "144826.160000", "144826.162000", "144826.165000", "144826.167000", "144826.170000", "144826.172000", "144826.175000", "144906.126000", "144906.129000", "144906.132000", "144906.134000", "144906.137000", "144906.139000", "144906.142000", "144906.144000", "144906.146000", "144906.149000", "144906.152000", "144906.154000", "144906.156000", "144906.159000", "144906.162000", "144906.164000", "144906.166000", "144906.169000", "144906.171000", "144906.174000", "144946.126000", "144946.129000", "144946.132000", "144946.134000", "144946.137000", "144946.139000", "144946.142000", "144946.144000", "144946.147000", "144946.149000", "144946.151000", "144946.154000", "144946.156000", "144946.159000", "144946.161000", "144946.164000", "144946.166000", "144946.169000", "144946.171000", "144946.174000", "145002.543000", "145002.546000", "145002.548000", "145002.551000", "145002.553000", "145002.556000", "145002.559000", "145002.561000", "145002.564000"],
      "InstanceCreationTime": ["143846.131000", "143846.135000", "143846.145000", "143846.147000", "143846.150000", "143846.152000", "143846.155000", "143846.157000", "143846.160000", "143846.168000", "143846.171000", "143846.173000", "143846.176000", "143846.181000", "143846.183000", "143846.186000", "143846.189000", "143846.191000", "143846.194000", "143846.196000", "143846.199000", "143846.201000", "143846.204000", "143846.206000", "143846.209000", "143926.126000", "143926.129000", "143926.132000", "143926.134000", "143926.143000", "143926.146000", "143926.148000", "143926.151000", "143926.153000", "143926.156000", "143926.158000", "143926.179000", "143926.182000", "143926.184000", "143926.187000", "143926.189000", "143926.192000", "143926.194000", "143926.197000", "143926.199000", "144006.126000", "144006.129000", "144006.132000", "144006.134000", "144006.136000", "144006.139000", "144006.141000", "144006.144000", "144006.146000", "144006.149000", "144006.151000", "144006.228000", "144006.231000", "144006.233000", "144006.236000", "144006.239000", "144006.241000", "144006.243000", "144006.246000", "144006.248000", "144046.126000", "144046.129000", "144046.132000", "144046.134000", "144046.137000", "144046.139000", "144046.142000", "144046.144000", "144046.146000", "144046.149000", "144046.151000", "144046.154000", "144046.156000", "144046.159000", "144046.161000", "144046.164000", "144046.166000", "144046.169000", "144046.171000", "144046.174000", "144126.127000", "144126.130000", "144126.133000", "144126.135000", "144126.138000", "144126.140000", "144126.142000", "144126.145000", "144126.147000", "144126.150000", "144126.152000", "144126.155000", "144126.157000", "144126.160000", "144126.162000", "144126.165000", "144126.167000", "144126.170000", "144126.172000", "144126.175000", "144206.126000", "144206.129000", "144206.132000", "144206.134000", "144206.137000", "144206.139000", "144206.141000", "144206.144000", "144206.146000", "144206.149000", "144206.151000", "144206.154000", "144206.156000", "144206.180000", "144206.182000", "144206.200000", "144206.203000", "144206.205000", "144206.208000", "144206.210000", "144226.127000", "144226.129000", "144226.132000", "144226.134000", "144226.143000", "144226.145000", "144226.148000", "144226.150000", "144226.153000", "144226.155000", "144306.126000", "144306.129000", "144306.132000", "144306.134000", "144306.137000", "144306.139000", "144306.142000", "144306.144000", "144306.147000", "144306.149000", "144306.151000", "144306.154000", "144306.157000", "144306.159000", "144306.162000", "144306.164000", "144306.167000", "144306.169000", "144306.172000", "144306.174000", "144346.127000", "144346.130000", "144346.133000", "144346.135000", "144346.138000", "144346.140000", "144346.143000", "144346.145000", "144346.148000", "144346.150000", "144346.152000", "144346.155000", "144346.158000", "144346.160000", "144346.163000", "144346.165000", "144346.168000", "144346.170000", "144346.172000", "144346.175000", "144426.126000", "144426.129000", "144426.132000", "144426.134000", "144426.137000", "144426.139000", "144426.142000", "144426.144000", "144426.146000", "144426.149000", "144426.151000", "144426.154000", "144426.156000", "144426.159000", "144426.161000", "144426.164000", "144426.166000", "144426.169000", "144426.171000", "144426.174000", "144506.126000", "144506.129000", "144506.132000", "144506.134000", "144506.137000", "144506.139000", "144506.141000", "144506.144000", "144506.146000", "144506.149000", "144506.151000", "144506.154000", "144506.156000", "144506.159000", "144506.161000", "144506.164000", "144506.166000", "144506.169000", "144506.171000", "144506.174000", "144546.127000", "144546.130000", "144546.133000", "144546.135000", "144546.138000", "144546.140000", "144546.142000", "144546.145000", "144546.147000", "144546.150000", "144546.152000", "144546.155000", "144546.157000", "144546.160000", "144546.162000", "144546.165000", "144546.167000", "144546.170000", "144546.172000", "144546.175000", "144626.126000", "144626.129000", "144626.132000", "144626.134000", "144626.137000", "144626.139000", "144626.141000", "144626.144000", "144626.146000", "144626.149000", "144626.151000", "144626.154000", "144626.156000", "144626.187000", "144626.190000", "144626.192000", "144626.195000", "144626.197000", "144626.200000", "144626.202000", "144706.126000", "144706.129000", "144706.132000", "144706.134000", "144706.137000", "144706.139000", "144706.142000", "144706.144000", "144706.147000", "144706.149000", "144706.152000", "144706.154000", "144706.157000", "144706.159000", "144706.162000", "144706.164000", "144706.167000", "144706.169000", "144706.172000", "144706.174000", "144746.127000", "144746.129000", "144746.132000", "144746.134000", "144746.137000", "144746.139000", "144746.142000", "144746.144000", "144746.147000", "144746.149000", "144746.151000", "144746.154000", "144746.156000", "144746.159000", "144746.161000", "144746.164000", "144746.166000", "144746.169000", "144746.171000", "144746.174000", "144826.127000", "144826.130000", "144826.133000", "144826.135000", "144826.138000", "144826.140000", "144826.143000", "144826.145000", "144826.147000", "144826.150000", "144826.152000", "144826.155000", "144826.157000", "144826.160000", "144826.162000", "144826.165000", "144826.167000", "144826.170000", "144826.172000", "144826.175000", "144906.126000", "144906.129000", "144906.132000", "144906.134000", "144906.137000", "144906.139000", "144906.142000", "144906.144000", "144906.146000", "144906.149000", "144906.152000", "144906.154000", "144906.156000", "144906.159000", "144906.162000", "144906.164000", "144906.166000", "144906.169000", "144906.171000", "144906.174000", "144946.126000", "144946.129000", "144946.132000", "144946.134000", "144946.137000", "144946.139000", "144946.142000", "144946.144000", "144946.147000", "144946.149000", "144946.151000", "144946.154000", "144946.156000", "144946.159000", "144946.161000", "144946.164000", "144946.166000", "144946.169000", "144946.171000", "144946.174000", "145002.543000", "145002.546000", "145002.548000", "145002.551000", "145002.553000", "145002.556000", "145002.559000", "145002.561000", "145002.564000"],
      "InstanceNumber": [1, 2, 3, 4, 5, 6, 7, 8, 9, 10, 11, 12, 13, 14, 15, 16, 17, 18, 19, 20, 21, 22, 23, 24, 25, 26, 27, 28, 29, 30, 31, 32, 33, 34, 35, 36, 37, 38, 39, 40, 41, 42, 43, 44, 45, 46, 47, 48, 49, 50, 51, 52, 53, 54, 55, 56, 57, 58, 59, 60, 61, 62, 63, 64, 65, 66, 67, 68, 69, 70, 71, 72, 73, 74, 75, 76, 77, 78, 79, 80, 81, 82, 83, 84, 85, 86, 87, 88, 89, 90, 91, 92, 93, 94, 95, 96, 97, 98, 99, 100, 101, 102, 103, 104, 105, 106, 107, 108, 109, 110, 111, 112, 113, 114, 115, 116, 117, 118, 119, 120, 121, 122, 123, 124, 125, 126, 127, 128, 129, 130, 131, 132, 133, 134, 135, 136, 137, 138, 139, 140, 141, 142, 143, 144, 145, 146, 147, 148, 149, 150, 151, 152, 153, 154, 155, 156, 157, 158, 159, 160, 161, 162, 163, 164, 165, 166, 167, 168, 169, 170, 171, 172, 173, 174, 175, 176, 177, 178, 179, 180, 181, 182, 183, 184, 185, 186, 187, 188, 189, 190, 191, 192, 193, 194, 195, 196, 197, 198, 199, 200, 201, 202, 203, 204, 205, 206, 207, 208, 209, 210, 211, 212, 213, 214, 215, 216, 217, 218, 219, 220, 221, 222, 223, 224, 225, 226, 227, 228, 229, 230, 231, 232, 233, 234, 235, 236, 237, 238, 239, 240, 241, 242, 243, 244, 245, 246, 247, 248, 249, 250, 251, 252, 253, 254, 255, 256, 257, 258, 259, 260, 261, 262, 263, 264, 265, 266, 267, 268, 269, 270, 271, 272, 273, 274, 275, 276, 277, 278, 279, 280, 281, 282, 283, 284, 285, 286, 287, 288, 289, 290, 291, 292, 293, 294, 295, 296, 297, 298, 299, 300, 301, 302, 303, 304, 305, 306, 307, 308, 309, 310, 311, 312, 313, 314, 315, 316, 317, 318, 319, 320, 321, 322, 323, 324, 325, 326, 327, 328, 329, 330, 331, 332, 333, 334, 335, 336, 337, 338, 339, 340, 341, 342, 343, 344, 345, 346, 347, 348, 349, 350, 351, 352, 353, 354, 355, 356, 357, 358, 359, 360, 361, 362, 363, 364],
      "LargestImagePixelValue": [2422, 2414, 2390, 2409, 2384, 2366, 2391, 2388, 2388, 2398, 2402, 2386, 2385, 2414, 2408, 2422, 2402, 2396, 2405, 2404, 2413, 2415, 2403, 2394, 2399, 2411, 2419, 2419, 2410, 2401, 2414, 2415, 2427, 2389, 2413, 2389, 2392, 2415, 2414, 2404, 2401, 2405, 2406, 2395, 2390, 2399, 2402, 2413, 2417, 2415, 2414, 2411, 2423, 2418, 2440, 2434, 2407, 2410, 2415, 2414, 2431, 2387, 2389, 2400, 2387, 2395, 2393, 2410, 2406, 2408, 2402, 2427, 2405, 2426, 2413, 2413, 2397, 2420, 2422, 2399, 2406, 2399, 2404, 2402, 2412, 2405, 2403, 2403, 2413, 2426, 2449, 2426, 2413, 2397, 2397, 2390, 2392, 2384, 2404, 2430, 2431, 2419, 2421, 2418, 2411, 2398, 2417, 2430, 2433, 2395, 2426, 2404, 2415, 2403, 2407, 2418, 2399, 2405, 2412, 2411, 2431, 2418, 2409, 2411, 2414, 2413, 2387, 2410, 2414, 2418, 2406, 2419, 2428, 2413, 2401, 2400, 2423, 2426, 2413, 2417, 2408, 2401, 2411, 2409, 2405, 2420, 2400, 2392, 2399, 2412, 2443, 2393, 2413, 2397, 2400, 2402, 2404, 2399, 2405, 2385, 2419, 2423, 2429, 2411, 2402, 2392, 2414, 2399, 2385, 2395, 2398, 2422, 2407, 2403, 2415, 2436, 2403, 2385, 2394, 2434, 2426, 2422, 2403, 2430, 2439, 2464, 2430, 2403, 2399, 2407, 2436, 2404, 2407, 2403, 2415, 2421, 2395, 2393, 2414, 2403, 2391, 2413, 2418, 2399, 2408, 2410, 2388, 2400, 2406, 2420, 2404, 2425, 2435, 2426, 2403, 2409, 2414, 2417, 2409, 2387, 2393, 2407, 2408, 2434, 2420, 2407, 2402, 2426, 2410, 2399, 2408, 2395, 2411, 2435, 2401, 2402, 2412, 2412, 2423, 2424, 2418, 2436, 2431, 2408, 2446, 2420, 2392, 2395, 2405, 2412, 2440, 2426, 2406, 2405, 2410, 2400, 2418, 2421, 2407, 2394, 2430, 2421, 2401, 2399, 2433, 2408, 2397, 2413, 2417, 2438, 2394, 2419, 2473, 2397, 2401, 2434, 2402, 2413, 2379, 2428, 2409, 2396, 2433, 2420, 2393, 2411, 2445, 2415, 2407, 2423, 2405, 2420, 2416, 2412, 2416, 2414, 2417, 2424, 2399, 2421, 2494, 2394, 2465, 2410, 2417, 2398, 2386, 2401, 2420, 2430, 2403, 2404, 2429, 2425, 2456, 2433, 2440, 2465, 2448, 2422, 2425, 2441, 2425, 2440, 2417, 2448, 2432, 2444, 2415, 2432, 2416, 2483, 2420, 2388, 2415, 2404, 2439, 2431, 2425, 2410, 2411, 2403, 2441, 2440, 2411, 2418, 2451, 2430, 2423, 2422, 2433, 2439, 2410, 2450, 2447, 2414, 2430, 2434, 2461, 2428, 2442, 2432, 2448, 2471],
