{
  "AcquisitionMatrixPE": 64,
  "AcquisitionNumber": 1,
  "AcquisitionTime": "14:51:50.165000",
  "BandwidthPerPixelPhaseEncode": 25.202,
  "BaseResolution": 64,
  "BodyPartExamined": "BRAIN",
  "ConsistencyInfo": "N4_VE11C_LATEST_20160120",
  "ConversionSoftware": "dcm2niix",
  "ConversionSoftwareVersion": "v1.0.20201102",
  "DerivedVendorReportedEchoSpacing": 0.00061999,
  "DeviceSerialNumber": "45758",
  "DwellTime": 4.3e-06,
  "EchoTime": 0.03,
  "EchoTrainLength": 64,
  "EffectiveEchoSpacing": 0.00061999,
  "FlipAngle": 90,
  "ImageOrientationPatientDICOM": [0.995584, -0.0516807, 0.078368, 0.0521763, 0.998629, -0.00428832],
  "ImageType": [
    "ORIGINAL",
    "PRIMARY",
    "M",
    "ND",
    "MOSAIC"
],
  "ImagingFrequency": 123.2,
  "InPlanePhaseEncodingDirectionDICOM": "ROW",
  "InstitutionAddress": "Street StreetNo,City /652E4B/,District,KR,ZIP",
  "InstitutionName": "DGMIF",
  "InstitutionalDepartmentName": "Department",
  "MRAcquisitionType": "2D",
  "MagneticFieldStrength": 3,
  "Manufacturer": "Siemens",
  "ManufacturersModelName": "Skyra",
  "Modality": "MR",
  "PartialFourier": 1,
  "PatientPosition": "HFS",
  "PercentPhaseFOV": 100,
  "PercentSampling": 100,
  "PhaseEncodingDirection": "i",
  "PhaseEncodingSteps": 64,
  "PhaseResolution": 1,
  "PixelBandwidth": 1815,
  "ProcedureStepDescription": "DGMIF^DGIST",
  "ProtocolName": "EPI_DGIST_3",
  "PulseSequenceDetails": "%SiemensSeq%\\ep2d_bold",
  "ReceiveCoilActiveElements": "HC1-7",
  "ReceiveCoilName": "HeadNeck_64",
  "ReconMatrixPE": 64,
  "RepetitionTime": 2,
  "SAR": 0.126972,
  "ScanOptions": "FS",
  "ScanningSequence": "EP",
  "SequenceName": "*epfid2d1_64",
  "SequenceVariant": "SK",
  "SeriesDescription": "EPI_DGIST_3",
  "SeriesNumber": 4,
  "ShimSetting": [-9717, -13630, -8270, 343, -466, -608, -437, -304],
  "SliceThickness": 4,
  "SliceTiming": [0.99, 0, 1.055, 0.065, 1.1225, 0.1325, 1.1875, 0.1975, 1.2525, 0.265, 1.32, 0.33, 1.385, 0.395, 1.4525, 0.4625, 1.5175, 0.5275, 1.5825, 0.595, 1.65, 0.66, 1.715, 0.725, 1.7825, 0.7925, 1.8475, 0.8575, 1.9125, 0.9225],
  "SoftwareVersions": "syngo MR E11",
  "SpacingBetweenSlices": 4.8,
  "StationName": "AWP45758",
  "TaskName": "asrt",
  "TotalReadoutTime": 0.0390594,
  "TxRefAmp": 321.881,
  "dcmmeta_affine": [
    [-2.9867520332336426, 0.156529039144516, 0.37458696961402893, 87.67976379394531],
    [0.15504221618175507, 2.9958860874176025, -0.040120046585798264, -124.15106201171875],
    [0.23510412871837616, 0.012864965945482254, 4.78519344329834, -92.10333251953125],
    [0.0, 0.0, 0.0, 1.0]
],
  "dcmmeta_reorient_transform": [
    [0.0, -1.0, 0.0, 63.0],
    [1.0, 0.0, 0.0, 0.0],
    [0.0, 0.0, 1.0, 0.0],
    [0.0, 0.0, 0.0, 1.0]
],
  "dcmmeta_shape": [64, 64, 30, 364],
  "dcmmeta_slice_dim": 2,
  "dcmmeta_version": 0.6,
  "global": {
    "const": {
      "AcquisitionMatrix": [0, 64, 64, 0],
      "AngioFlag": "N",
      "BitsAllocated": 16,
      "BitsStored": 12,
      "BodyPartExamined": "BRAIN",
      "Columns": 384,
      "EchoNumbers": 1,
      "EchoTime": 30.0,
      "EchoTrainLength": 64,
      "FlipAngle": 90.0,
      "HighBit": 11,
      "ImageOrientationPatient": [0.99558402491868, -0.0516807398337, 0.07836804487131, 0.05217634582145, 0.99862867935546, -0.0042883219906],
      "ImagePositionPatient": [-600.466071626, -519.12476577376, -126.8511032406],
      "ImageType": [
        "ORIGINAL",
        "PRIMARY",
        "M",
        "ND",
        "MOSAIC"
],
      "ImagedNucleus": "1H",
      "ImagingFrequency": 123.200196,
      "InPlanePhaseEncodingDirection": "ROW",
      "MRAcquisitionType": "2D",
      "MagneticFieldStrength": 3.0,
      "Manufacturer": "SIEMENS",
      "ManufacturerModelName": "Skyra",
      "Modality": "MR",
      "NumberOfAverages": 1.0,
      "NumberOfPhaseEncodingSteps": 64,
      "PercentPhaseFieldOfView": 100.0,
      "PercentSampling": 100.0,
      "PerformedProcedureStepStartTime": "141447.800000",
      "PhotometricInterpretation": "MONOCHROME2",
      "PixelBandwidth": 1815.0,
      "PixelRepresentation": 0,
      "PixelSpacing": [3.0, 3.0],
      "ProtocolName": "EPI_DGIST_3",
      "RepetitionTime": 2000.0,
      "Rows": 384,
      "SAR": 0.12697232513662,
      "SamplesPerPixel": 1,
      "ScanOptions": "FS",
      "ScanningSequence": "EP",
      "SequenceName": "*epfid2d1_64",
      "SequenceVariant": "SK",
      "SeriesDescription": "EPI_DGIST_3",
      "SeriesNumber": 4,
      "SeriesTime": "145223.868000",
      "SliceLocation": -83.939081159612,
      "SliceThickness": 4.0,
      "SmallestImagePixelValue": 0,
      "SoftwareVersions": "syngo MR E11",
      "SpacingBetweenSlices": 4.7999999061834,
      "SpecificCharacterSet": "ISO_IR 100",
      "StudyID": "1",
      "StudyTime": "141447.754000",
      "TransmitCoilName": "Body",
      "VariableFlipAngleFlag": "N",
      "WindowCenterWidthExplanation": "Algo1",
      "dBdt": 0.0},
    "slices": {}
  },
  "time": {
    "samples": {
      "AcquisitionNumber": [1, 2, 3, 4, 5, 6, 7, 8, 9, 10, 11, 12, 13, 14, 15, 16, 17, 18, 19, 20, 21, 22, 23, 24, 25, 26, 27, 28, 29, 30, 31, 32, 33, 34, 35, 36, 37, 38, 39, 40, 41, 42, 43, 44, 45, 46, 47, 48, 49, 50, 51, 52, 53, 54, 55, 56, 57, 58, 59, 60, 61, 62, 63, 64, 65, 66, 67, 68, 69, 70, 71, 72, 73, 74, 75, 76, 77, 78, 79, 80, 81, 82, 83, 84, 85, 86, 87, 88, 89, 90, 91, 92, 93, 94, 95, 96, 97, 98, 99, 100, 101, 102, 103, 104, 105, 106, 107, 108, 109, 110, 111, 112, 113, 114, 115, 116, 117, 118, 119, 120, 121, 122, 123, 124, 125, 126, 127, 128, 129, 130, 131, 132, 133, 134, 135, 136, 137, 138, 139, 140, 141, 142, 143, 144, 145, 146, 147, 148, 149, 150, 151, 152, 153, 154, 155, 156, 157, 158, 159, 160, 161, 162, 163, 164, 165, 166, 167, 168, 169, 170, 171, 172, 173, 174, 175, 176, 177, 178, 179, 180, 181, 182, 183, 184, 185, 186, 187, 188, 189, 190, 191, 192, 193, 194, 195, 196, 197, 198, 199, 200, 201, 202, 203, 204, 205, 206, 207, 208, 209, 210, 211, 212, 213, 214, 215, 216, 217, 218, 219, 220, 221, 222, 223, 224, 225, 226, 227, 228, 229, 230, 231, 232, 233, 234, 235, 236, 237, 238, 239, 240, 241, 242, 243, 244, 245, 246, 247, 248, 249, 250, 251, 252, 253, 254, 255, 256, 257, 258, 259, 260, 261, 262, 263, 264, 265, 266, 267, 268, 269, 270, 271, 272, 273, 274, 275, 276, 277, 278, 279, 280, 281, 282, 283, 284, 285, 286, 287, 288, 289, 290, 291, 292, 293, 294, 295, 296, 297, 298, 299, 300, 301, 302, 303, 304, 305, 306, 307, 308, 309, 310, 311, 312, 313, 314, 315, 316, 317, 318, 319, 320, 321, 322, 323, 324, 325, 326, 327, 328, 329, 330, 331, 332, 333, 334, 335, 336, 337, 338, 339, 340, 341, 342, 343, 344, 345, 346, 347, 348, 349, 350, 351, 352, 353, 354, 355, 356, 357, 358, 359, 360, 361, 362, 363, 364],
      "AcquisitionTime": ["145150.165000", "145152.165000", "145154.165000", "145156.165000", "145158.165000", "145200.165000", "145202.165000", "145204.165000", "145206.165000", "145208.165000", "145210.165000", "145212.165000", "145214.165000", "145216.165000", "145218.165000", "145220.165000", "145222.165000", "145224.165000", "145226.165000", "145228.165000", "145230.165000", "145232.165000", "145234.165000", "145236.165000", "145238.165000", "145240.165000", "145242.165000", "145244.165000", "145246.165000", "145248.165000", "145250.165000", "145252.165000", "145254.165000", "145256.165000", "145258.165000", "145300.165000", "145302.165000", "145304.165000", "145306.165000", "145308.165000", "145310.165000", "145312.165000", "145314.165000", "145316.165000", "145318.165000", "145320.165000", "145322.165000", "145324.165000", "145326.165000", "145328.165000", "145330.165000", "145332.165000", "145334.165000", "145336.165000", "145338.165000", "145340.165000", "145342.165000", "145344.165000", "145346.165000", "145348.165000", "145350.165000", "145352.165000", "145354.165000", "145356.165000", "145358.165000", "145400.165000", "145402.165000", "145404.165000", "145406.165000", "145408.165000", "145410.165000", "145412.165000", "145414.165000", "145416.165000", "145418.165000", "145420.165000", "145422.165000", "145424.165000", "145426.165000", "145428.165000", "145430.165000", "145432.165000", "145434.165000", "145436.165000", "145438.165000", "145440.165000", "145442.165000", "145444.165000", "145446.165000", "145448.165000", "145450.165000", "145452.165000", "145454.165000", "145456.165000", "145458.165000", "145500.165000", "145502.165000", "145504.165000", "145506.165000", "145508.165000", "145510.165000", "145512.165000", "145514.165000", "145516.165000", "145518.165000", "145520.165000", "145522.165000", "145524.165000", "145526.165000", "145528.165000", "145530.165000", "145532.165000", "145534.165000", "145536.165000", "145538.165000", "145540.165000", "145542.165000", "145544.165000", "145546.165000", "145548.165000", "145550.165000", "145552.165000", "145554.165000", "145556.165000", "145558.165000", "145600.165000", "145602.165000", "145604.165000", "145606.165000", "145608.165000", "145610.165000", "145612.165000", "145614.165000", "145616.165000", "145618.165000", "145620.165000", "145622.165000", "145624.165000", "145626.165000", "145628.165000", "145630.165000", "145632.165000", "145634.165000", "145636.165000", "145638.165000", "145640.165000", "145642.165000", "145644.165000", "145646.165000", "145648.165000", "145650.165000", "145652.165000", "145654.165000", "145656.165000", "145658.165000", "145700.165000", "145702.165000", "145704.165000", "145706.165000", "145708.165000", "145710.165000", "145712.165000", "145714.165000", "145716.165000", "145718.165000", "145720.165000", "145722.165000", "145724.165000", "145726.165000", "145728.165000", "145730.165000", "145732.165000", "145734.165000", "145736.165000", "145738.165000", "145740.165000", "145742.165000", "145744.165000", "145746.165000", "145748.165000", "145750.165000", "145752.165000", "145754.165000", "145756.165000", "145758.165000", "145800.165000", "145802.165000", "145804.165000", "145806.165000", "145808.165000", "145810.165000", "145812.165000", "145814.165000", "145816.165000", "145818.165000", "145820.165000", "145822.165000", "145824.165000", "145826.165000", "145828.165000", "145830.165000", "145832.165000", "145834.165000", "145836.165000", "145838.165000", "145840.165000", "145842.165000", "145844.165000", "145846.165000", "145848.165000", "145850.165000", "145852.165000", "145854.165000", "145856.165000", "145858.165000", "145900.165000", "145902.165000", "145904.165000", "145906.165000", "145908.165000", "145910.165000", "145912.165000", "145914.165000", "145916.165000", "145918.165000", "145920.165000", "145922.165000", "145924.165000", "145926.165000", "145928.165000", "145930.165000", "145932.165000", "145934.165000", "145936.165000", "145938.165000", "145940.165000", "145942.165000", "145944.165000", "145946.165000", "145948.165000", "145950.165000", "145952.165000", "145954.165000", "145956.165000", "145958.165000", "150000.165000", "150002.165000", "150004.165000", "150006.165000", "150008.165000", "150010.165000", "150012.165000", "150014.165000", "150016.165000", "150018.165000", "150020.165000", "150022.165000", "150024.165000", "150026.165000", "150028.165000", "150030.165000", "150032.165000", "150034.165000", "150036.165000", "150038.165000", "150040.165000", "150042.165000", "150044.165000", "150046.165000", "150048.165000", "150050.165000", "150052.165000", "150054.165000", "150056.165000", "150058.165000", "150100.165000", "150102.165000", "150104.165000", "150106.165000", "150108.165000", "150110.165000", "150112.165000", "150114.165000", "150116.165000", "150118.165000", "150120.165000", "150122.165000", "150124.165000", "150126.165000", "150128.165000", "150130.165000", "150132.165000", "150134.165000", "150136.165000", "150138.165000", "150140.165000", "150142.165000", "150144.165000", "150146.165000", "150148.165000", "150150.165000", "150152.165000", "150154.165000", "150156.165000", "150158.165000", "150200.165000", "150202.165000", "150204.165000", "150206.165000", "150208.165000", "150210.165000", "150212.165000", "150214.165000", "150216.165000", "150218.165000", "150220.165000", "150222.165000", "150224.165000", "150226.165000", "150228.165000", "150230.165000", "150232.165000", "150234.165000", "150236.165000", "150238.165000", "150240.165000", "150242.165000", "150244.165000", "150246.165000", "150248.165000", "150250.165000", "150252.165000", "150254.165000", "150256.165000", "150258.165000", "150300.165000", "150302.165000", "150304.165000", "150306.165000", "150308.165000", "150310.165000", "150312.165000", "150314.165000", "150316.165000", "150318.165000", "150320.165000", "150322.165000", "150324.165000", "150326.165000", "150328.165000", "150330.165000", "150332.165000", "150334.165000", "150336.165000", "150338.165000", "150340.165000", "150342.165000", "150344.165000", "150346.165000", "150348.165000", "150350.165000", "150352.165000", "150354.165000", "150356.165000"],
      "ContentTime": ["145223.871000", "145223.875000", "145223.881000", "145223.884000", "145223.886000", "145223.889000", "145223.891000", "145223.894000", "145223.896000", "145223.899000", "145223.901000", "145223.904000", "145223.906000", "145223.909000", "145223.911000", "145223.914000", "145223.916000", "145303.867000", "145303.870000", "145303.873000", "145303.875000", "145303.878000", "145303.880000", "145303.883000", "145303.885000", "145303.888000", "145303.890000", "145303.892000", "145303.895000", "145303.897000", "145303.900000", "145303.902000", "145303.905000", "145303.907000", "145303.910000", "145303.912000", "145303.915000", "145343.866000", "145343.869000", "145343.872000", "145343.874000", "145343.877000", "145343.879000", "145343.882000", "145343.884000", "145343.887000", "145343.889000", "145343.892000", "145343.894000", "145343.897000", "145343.899000", "145343.902000", "145343.904000", "145343.906000", "145343.915000", "145343.917000", "145343.920000", "145423.866000", "145423.869000", "145423.872000", "145423.874000", "145423.877000", "145423.879000", "145423.882000", "145423.884000", "145423.887000", "145423.889000", "145423.892000", "145423.894000", "145423.897000", "145423.899000", "145423.901000", "145423.904000", "145423.906000", "145423.909000", "145423.911000", "145423.914000", "145503.866000", "145503.869000", "145503.872000", "145503.874000", "145503.877000", "145503.879000", "145503.882000", "145503.884000", "145503.887000", "145503.889000", "145503.891000", "145503.894000", "145503.896000", "145503.899000", "145503.901000", "145503.904000", "145503.906000", "145503.909000", "145503.911000", "145503.914000", "145543.867000", "145543.870000", "145543.873000", "145543.875000", "145543.878000", "145543.880000", "145543.883000", "145543.885000", "145543.888000", "145543.890000", "145543.893000", "145543.895000", "145543.897000", "145543.900000", "145543.902000", "145543.905000", "145543.907000", "145543.910000", "145543.912000", "145543.915000", "145623.866000", "145623.869000", "145623.872000", "145623.874000", "145623.877000", "145623.879000", "145623.882000", "145623.884000", "145623.887000", "145623.889000", "145623.892000", "145623.894000", "145623.903000", "145623.905000", "145623.908000", "145623.910000", "145623.913000", "145623.915000", "145623.918000", "145623.920000", "145703.866000", "145703.869000", "145703.872000", "145703.874000", "145703.877000", "145703.879000", "145703.882000", "145703.884000", "145703.887000", "145703.889000", "145703.892000", "145703.910000", "145703.912000", "145703.915000", "145703.917000", "145703.920000", "145703.922000", "145703.925000", "145703.927000", "145703.930000", "145743.868000", "145743.870000", "145743.873000", "145743.875000", "145743.878000", "145743.880000", "145743.883000", "145743.885000", "145743.888000", "145743.890000", "145743.893000", "145743.895000", "145743.898000", "145743.900000", "145743.903000", "145743.905000", "145743.908000", "145743.910000", "145743.913000", "145743.915000", "145823.866000", "145823.869000", "145823.872000", "145823.874000", "145823.877000", "145823.879000", "145823.882000", "145823.884000", "145823.887000", "145823.889000", "145823.892000", "145823.894000", "145823.896000", "145823.899000", "145823.901000", "145823.904000", "145823.906000", "145823.909000", "145823.911000", "145823.914000", "145903.866000", "145903.869000", "145903.872000", "145903.874000", "145903.877000", "145903.879000", "145903.882000", "145903.884000", "145903.887000", "145903.889000", "145903.891000", "145903.894000", "145903.896000", "145903.899000", "145903.901000", "145903.904000", "145903.906000", "145903.909000", "145903.911000", "145903.914000", "145943.866000", "145943.869000", "145943.872000", "145943.874000", "145943.877000", "145943.879000", "145943.882000", "145943.884000", "145943.887000", "145943.889000", "145943.892000", "145943.894000", "145943.897000", "145943.899000", "145943.902000", "145943.904000", "145943.907000", "145943.909000", "145943.912000", "145943.914000", "150023.867000", "150023.870000", "150023.873000", "150023.875000", "150023.878000", "150023.880000", "150023.883000", "150023.885000", "150023.888000", "150023.890000", "150023.893000", "150023.895000", "150023.898000", "150023.900000", "150023.902000", "150023.905000", "150023.907000", "150023.910000", "150023.912000", "150023.915000", "150103.866000", "150103.869000", "150103.872000", "150103.874000", "150103.877000", "150103.879000", "150103.882000", "150103.884000", "150103.887000", "150103.889000", "150103.892000", "150103.894000", "150103.897000", "150103.899000", "150103.902000", "150103.904000", "150103.907000", "150103.909000", "150103.911000", "150103.914000", "150143.866000", "150143.869000", "150143.872000", "150143.874000", "150143.877000", "150143.879000", "150143.882000", "150143.884000", "150143.887000", "150143.889000", "150143.892000", "150143.894000", "150143.896000", "150143.899000", "150143.902000", "150143.904000", "150143.907000", "150143.909000", "150143.912000", "150143.914000", "150223.868000", "150223.870000", "150223.873000", "150223.875000", "150223.878000", "150223.880000", "150223.883000", "150223.885000", "150223.888000", "150223.890000", "150223.893000", "150223.895000", "150223.898000", "150223.900000", "150223.903000", "150223.905000", "150223.908000", "150223.910000", "150223.913000", "150223.915000", "150303.866000", "150303.869000", "150303.872000", "150303.874000", "150303.877000", "150303.879000", "150303.882000", "150303.884000", "150303.886000", "150303.889000", "150303.891000", "150303.894000", "150303.896000", "150303.899000", "150303.901000", "150303.904000", "150303.906000", "150303.909000", "150303.911000", "150303.914000", "150343.866000", "150343.869000", "150343.872000", "150343.874000", "150343.877000", "150343.879000", "150343.882000", "150343.884000", "150343.887000", "150343.889000", "150343.892000", "150343.894000", "150343.897000", "150343.899000", "150343.902000", "150343.904000", "150343.907000", "150343.909000", "150343.912000", "150343.914000", "150357.638000", "150357.641000", "150357.643000", "150357.646000", "150357.648000", "150357.651000", "150357.654000"],
      "InstanceCreationTime": ["145223.871000", "145223.875000", "145223.881000", "145223.884000", "145223.886000", "145223.889000", "145223.891000", "145223.894000", "145223.896000", "145223.899000", "145223.901000", "145223.904000", "145223.906000", "145223.909000", "145223.911000", "145223.914000", "145223.916000", "145303.867000", "145303.870000", "145303.873000", "145303.875000", "145303.878000", "145303.880000", "145303.883000", "145303.885000", "145303.888000", "145303.890000", "145303.892000", "145303.895000", "145303.897000", "145303.900000", "145303.902000", "145303.905000", "145303.907000", "145303.910000", "145303.912000", "145303.915000", "145343.866000", "145343.869000", "145343.872000", "145343.874000", "145343.877000", "145343.879000", "145343.882000", "145343.884000", "145343.887000", "145343.889000", "145343.892000", "145343.894000", "145343.897000", "145343.899000", "145343.902000", "145343.904000", "145343.906000", "145343.915000", "145343.917000", "145343.920000", "145423.866000", "145423.869000", "145423.872000", "145423.874000", "145423.877000", "145423.879000", "145423.882000", "145423.884000", "145423.887000", "145423.889000", "145423.892000", "145423.894000", "145423.897000", "145423.899000", "145423.901000", "145423.904000", "145423.906000", "145423.909000", "145423.911000", "145423.914000", "145503.866000", "145503.869000", "145503.872000", "145503.874000", "145503.877000", "145503.879000", "145503.882000", "145503.884000", "145503.887000", "145503.889000", "145503.891000", "145503.894000", "145503.896000", "145503.899000", "145503.901000", "145503.904000", "145503.906000", "145503.909000", "145503.911000", "145503.914000", "145543.867000", "145543.870000", "145543.873000", "145543.875000", "145543.878000", "145543.880000", "145543.883000", "145543.885000", "145543.888000", "145543.890000", "145543.893000", "145543.895000", "145543.897000", "145543.900000", "145543.902000", "145543.905000", "145543.907000", "145543.910000", "145543.912000", "145543.915000", "145623.866000", "145623.869000", "145623.872000", "145623.874000", "145623.877000", "145623.879000", "145623.882000", "145623.884000", "145623.887000", "145623.889000", "145623.892000", "145623.894000", "145623.903000", "145623.905000", "145623.908000", "145623.910000", "145623.913000", "145623.915000", "145623.918000", "145623.920000", "145703.866000", "145703.869000", "145703.872000", "145703.874000", "145703.877000", "145703.879000", "145703.882000", "145703.884000", "145703.887000", "145703.889000", "145703.892000", "145703.910000", "145703.912000", "145703.915000", "145703.917000", "145703.920000", "145703.922000", "145703.925000", "145703.927000", "145703.930000", "145743.868000", "145743.870000", "145743.873000", "145743.875000", "145743.878000", "145743.880000", "145743.883000", "145743.885000", "145743.888000", "145743.890000", "145743.893000", "145743.895000", "145743.898000", "145743.900000", "145743.903000", "145743.905000", "145743.908000", "145743.910000", "145743.913000", "145743.915000", "145823.866000", "145823.869000", "145823.872000", "145823.874000", "145823.877000", "145823.879000", "145823.882000", "145823.884000", "145823.887000", "145823.889000", "145823.892000", "145823.894000", "145823.896000", "145823.899000", "145823.901000", "145823.904000", "145823.906000", "145823.909000", "145823.911000", "145823.914000", "145903.866000", "145903.869000", "145903.872000", "145903.874000", "145903.877000", "145903.879000", "145903.882000", "145903.884000", "145903.887000", "145903.889000", "145903.891000", "145903.894000", "145903.896000", "145903.899000", "145903.901000", "145903.904000", "145903.906000", "145903.909000", "145903.911000", "145903.914000", "145943.866000", "145943.869000", "145943.872000", "145943.874000", "145943.877000", "145943.879000", "145943.882000", "145943.884000", "145943.887000", "145943.889000", "145943.892000", "145943.894000", "145943.897000", "145943.899000", "145943.902000", "145943.904000", "145943.907000", "145943.909000", "145943.912000", "145943.914000", "150023.867000", "150023.870000", "150023.873000", "150023.875000", "150023.878000", "150023.880000", "150023.883000", "150023.885000", "150023.888000", "150023.890000", "150023.893000", "150023.895000", "150023.898000", "150023.900000", "150023.902000", "150023.905000", "150023.907000", "150023.910000", "150023.912000", "150023.915000", "150103.866000", "150103.869000", "150103.872000", "150103.874000", "150103.877000", "150103.879000", "150103.882000", "150103.884000", "150103.887000", "150103.889000", "150103.892000", "150103.894000", "150103.897000", "150103.899000", "150103.902000", "150103.904000", "150103.907000", "150103.909000", "150103.911000", "150103.914000", "150143.866000", "150143.869000", "150143.872000", "150143.874000", "150143.877000", "150143.879000", "150143.882000", "150143.884000", "150143.887000", "150143.889000", "150143.892000", "150143.894000", "150143.896000", "150143.899000", "150143.902000", "150143.904000", "150143.907000", "150143.909000", "150143.912000", "150143.914000", "150223.868000", "150223.870000", "150223.873000", "150223.875000", "150223.878000", "150223.880000", "150223.883000", "150223.885000", "150223.888000", "150223.890000", "150223.893000", "150223.895000", "150223.898000", "150223.900000", "150223.903000", "150223.905000", "150223.908000", "150223.910000", "150223.913000", "150223.915000", "150303.866000", "150303.869000", "150303.872000", "150303.874000", "150303.877000", "150303.879000", "150303.882000", "150303.884000", "150303.886000", "150303.889000", "150303.891000", "150303.894000", "150303.896000", "150303.899000", "150303.901000", "150303.904000", "150303.906000", "150303.909000", "150303.911000", "150303.914000", "150343.866000", "150343.869000", "150343.872000", "150343.874000", "150343.877000", "150343.879000", "150343.882000", "150343.884000", "150343.887000", "150343.889000", "150343.892000", "150343.894000", "150343.897000", "150343.899000", "150343.902000", "150343.904000", "150343.907000", "150343.909000", "150343.912000", "150343.914000", "150357.638000", "150357.641000", "150357.643000", "150357.646000", "150357.648000", "150357.651000", "150357.654000"],
      "InstanceNumber": [1, 2, 3, 4, 5, 6, 7, 8, 9, 10, 11, 12, 13, 14, 15, 16, 17, 18, 19, 20, 21, 22, 23, 24, 25, 26, 27, 28, 29, 30, 31, 32, 33, 34, 35, 36, 37, 38, 39, 40, 41, 42, 43, 44, 45, 46, 47, 48, 49, 50, 51, 52, 53, 54, 55, 56, 57, 58, 59, 60, 61, 62, 63, 64, 65, 66, 67, 68, 69, 70, 71, 72, 73, 74, 75, 76, 77, 78, 79, 80, 81, 82, 83, 84, 85, 86, 87, 88, 89, 90, 91, 92, 93, 94, 95, 96, 97, 98, 99, 100, 101, 102, 103, 104, 105, 106, 107, 108, 109, 110, 111, 112, 113, 114, 115, 116, 117, 118, 119, 120, 121, 122, 123, 124, 125, 126, 127, 128, 129, 130, 131, 132, 133, 134, 135, 136, 137, 138, 139, 140, 141, 142, 143, 144, 145, 146, 147, 148, 149, 150, 151, 152, 153, 154, 155, 156, 157, 158, 159, 160, 161, 162, 163, 164, 165, 166, 167, 168, 169, 170, 171, 172, 173, 174, 175, 176, 177, 178, 179, 180, 181, 182, 183, 184, 185, 186, 187, 188, 189, 190, 191, 192, 193, 194, 195, 196, 197, 198, 199, 200, 201, 202, 203, 204, 205, 206, 207, 208, 209, 210, 211, 212, 213, 214, 215, 216, 217, 218, 219, 220, 221, 222, 223, 224, 225, 226, 227, 228, 229, 230, 231, 232, 233, 234, 235, 236, 237, 238, 239, 240, 241, 242, 243, 244, 245, 246, 247, 248, 249, 250, 251, 252, 253, 254, 255, 256, 257, 258, 259, 260, 261, 262, 263, 264, 265, 266, 267, 268, 269, 270, 271, 272, 273, 274, 275, 276, 277, 278, 279, 280, 281, 282, 283, 284, 285, 286, 287, 288, 289, 290, 291, 292, 293, 294, 295, 296, 297, 298, 299, 300, 301, 302, 303, 304, 305, 306, 307, 308, 309, 310, 311, 312, 313, 314, 315, 316, 317, 318, 319, 320, 321, 322, 323, 324, 325, 326, 327, 328, 329, 330, 331, 332, 333, 334, 335, 336, 337, 338, 339, 340, 341, 342, 343, 344, 345, 346, 347, 348, 349, 350, 351, 352, 353, 354, 355, 356, 357, 358, 359, 360, 361, 362, 363, 364],
      "LargestImagePixelValue": [2515, 2406, 2434, 2421, 2421, 2424, 2416, 2434, 2429, 2442, 2426, 2441, 2442, 2448, 2456, 2444, 2443, 2453, 2472, 2452, 2461, 2477, 2437, 2442, 2443, 2458, 2451, 2442, 2442, 2437, 2487, 2450, 2442, 2466, 2468, 2477, 2454, 2480, 2474, 2475, 2448, 2450, 2460, 2450, 2448, 2438, 2437, 2436, 2430, 2462, 2457, 2442, 2441, 2453, 2450, 2438, 2423, 2442, 2452, 2460, 2442, 2483, 2448, 2443, 2465, 2477, 2432, 2440, 2448, 2463, 2461, 2434, 2451, 2465, 2473, 2455, 2448, 2425, 2429, 2440, 2446, 2443, 2437, 2426, 2445, 2466, 2444, 2430, 2440, 2447, 2486, 2496, 2397, 2434, 2460, 2451, 2412, 2421, 2431, 2422, 2446, 2450, 2427, 2437, 2429, 2446, 2457, 2459, 2441, 2439, 2433, 2444, 2458, 2459, 2454, 2450, 2434, 2453, 2449, 2451, 2449, 2395, 2418, 2401, 2391, 2394, 2401, 2420, 2431, 2436, 2424, 2411, 2434, 2444, 2437, 2410, 2418, 2414, 2439, 2422, 2438, 2433, 2415, 2417, 2436, 2446, 2424, 2416, 2399, 2425, 2439, 2436, 2434, 2439, 2436, 2443, 2445, 2453, 2449, 2425, 2414, 2408, 2423, 2407, 2441, 2427, 2418, 2427, 2436, 2441, 2421, 2426, 2423, 2447, 2446, 2439, 2423, 2435, 2418, 2421, 2456, 2403, 2447, 2455, 2376, 2373, 2382, 2389, 2400, 2410, 2411, 2415, 2401, 2415, 2417, 2386, 2400, 2396, 2400, 2407, 2405, 2413, 2414, 2423, 2432, 2419, 2435, 2460, 2431, 2418, 2484, 2447, 2445, 2417, 2421, 2428, 2439, 2422, 2412, 2448, 2455, 2416, 2420, 2440, 2441, 2444, 2408, 2420, 2421, 2432, 2422, 2408, 2410, 2423, 2440, 2428, 2410, 2423, 2427, 2431, 2437, 2438, 2419, 2445, 2413, 2406, 2412, 2422, 2421, 2434, 2400, 2394, 2438, 2427, 2414, 2392, 2406, 2429, 2412, 2419, 2407, 2430, 2430, 2418, 2443, 2440, 2436, 2440, 2449, 2410, 2429, 2471, 2423, 2396, 2451, 2418, 2405, 2397, 2398, 2409, 2408, 2410, 2408, 2409, 2418, 2429, 2405, 2407, 2407, 2416, 2398, 2403, 2404, 2409, 2407, 2402, 2413, 2408, 2396, 2411, 2408, 2428, 2414, 2400, 2403, 2389, 2381, 2384, 2387, 2403, 2385, 2374, 2383, 2398, 2392, 2393, 2381, 2400, 2401, 2406, 2380, 2394, 2400, 2396, 2414, 2401, 2389, 2391, 2391, 2418, 2449, 2389, 2423, 2388, 2376, 2429, 2382, 2388, 2370, 2388, 2428, 2402, 2403, 2418, 2373, 2378, 2380, 2404, 2410, 2378, 2393, 2405, 2398, 2389, 2411, 2400, 2399, 2404, 2395, 2391, 2386, 2472, 2452, 2401],
