{
  "AcquisitionMatrixPE": 64,
  "AcquisitionNumber": 1,
  "AcquisitionTime": "14:19:18.465000",
  "BandwidthPerPixelPhaseEncode": 25.202,
  "BaseResolution": 64,
  "BodyPartExamined": "BRAIN",
  "ConsistencyInfo": "N4_VE11C_LATEST_20160120",
  "ConversionSoftware": "dcm2niix",
  "ConversionSoftwareVersion": "v1.0.20201102",
  "DerivedVendorReportedEchoSpacing": 0.00061999,
  "DeviceSerialNumber": "45758",
  "DwellTime": 4.3e-06,
  "EchoTime": 0.03,
  "EchoTrainLength": 64,
  "EffectiveEchoSpacing": 0.00061999,
  "FlipAngle": 90,
  "ImageOrientationPatientDICOM": [0.995584, -0.0516807, 0.078368, 0.0521763, 0.998629, -0.00428832],
  "ImageType": [
    "ORIGINAL",
    "PRIMARY",
    "M",
    "ND",
    "MOSAIC"
],
  "ImagingFrequency": 123.2,
  "InPlanePhaseEncodingDirectionDICOM": "ROW",
  "InstitutionAddress": "Street StreetNo,City /652E4B/,District,KR,ZIP",
  "InstitutionName": "DGMIF",
  "InstitutionalDepartmentName": "Department",
  "MRAcquisitionType": "2D",
  "MagneticFieldStrength": 3,
  "Manufacturer": "Siemens",
  "ManufacturersModelName": "Skyra",
  "Modality": "MR",
  "PartialFourier": 1,
  "PatientPosition": "HFS",
  "PercentPhaseFOV": 100,
  "PercentSampling": 100,
  "PhaseEncodingDirection": "i",
  "PhaseEncodingSteps": 64,
  "PhaseResolution": 1,
  "PixelBandwidth": 1815,
  "ProcedureStepDescription": "DGMIF^DGIST",
  "ProtocolName": "EPI_DGIST_1",
  "PulseSequenceDetails": "%SiemensSeq%\\ep2d_bold",
  "ReceiveCoilActiveElements": "HC1-7",
  "ReceiveCoilName": "HeadNeck_64",
  "ReconMatrixPE": 64,
  "RepetitionTime": 2,
  "SAR": 0.126972,
  "ScanOptions": "FS",
  "ScanningSequence": "EP",
  "SequenceName": "*epfid2d1_64",
  "SequenceVariant": "SK",
  "SeriesDescription": "EPI_DGIST_1",
  "SeriesNumber": 2,
  "ShimSetting": [-9717, -13630, -8270, 343, -466, -608, -437, -304],
  "SliceThickness": 4,
  "SliceTiming": [0.99, 0, 1.0575, 0.0675, 1.1225, 0.1325, 1.1875, 0.1975, 1.255, 0.265, 1.32, 0.33, 1.3875, 0.3975, 1.4525, 0.4625, 1.5175, 0.5275, 1.585, 0.595, 1.65, 0.66, 1.7175, 0.7275, 1.7825, 0.7925, 1.8475, 0.8575, 1.915, 0.925],
  "SoftwareVersions": "syngo MR E11",
  "SpacingBetweenSlices": 4.8,
  "StationName": "AWP45758",
  "TaskName": "asrt",
  "TotalReadoutTime": 0.0390594,
  "TxRefAmp": 321.881,
  "dcmmeta_affine": [
    [-2.9867520332336426, 0.156529039144516, 0.37458696961402893, 87.67976379394531],
    [0.15504221618175507, 2.9958860874176025, -0.040120046585798264, -124.15106201171875],
    [0.23510412871837616, 0.012864965945482254, 4.78519344329834, -92.10333251953125],
    [0.0, 0.0, 0.0, 1.0]
],
  "dcmmeta_reorient_transform": [
    [0.0, -1.0, 0.0, 63.0],
    [1.0, 0.0, 0.0, 0.0],
    [0.0, 0.0, 1.0, 0.0],
    [0.0, 0.0, 0.0, 1.0]
],
  "dcmmeta_shape": [64, 64, 30, 514],
  "dcmmeta_slice_dim": 2,
  "dcmmeta_version": 0.6,
  "global": {
    "const": {
      "AcquisitionMatrix": [0, 64, 64, 0],
      "AngioFlag": "N",
      "BitsAllocated": 16,
      "BitsStored": 12,
      "BodyPartExamined": "BRAIN",
      "Columns": 384,
      "EchoNumbers": 1,
      "EchoTime": 30.0,
      "EchoTrainLength": 64,
      "FlipAngle": 90.0,
      "HighBit": 11,
      "ImageOrientationPatient": [0.99558402491868, -0.0516807398337, 0.07836804487131, 0.05217634582145, 0.99862867935546, -0.0042883219906],
      "ImagePositionPatient": [-600.466071626, -519.12476577376, -126.8511032406],
      "ImageType": [
        "ORIGINAL",
        "PRIMARY",
        "M",
        "ND",
        "MOSAIC"
],
      "ImagedNucleus": "1H",
      "ImagingFrequency": 123.200171,
      "InPlanePhaseEncodingDirection": "ROW",
      "MRAcquisitionType": "2D",
      "MagneticFieldStrength": 3.0,
      "Manufacturer": "SIEMENS",
      "ManufacturerModelName": "Skyra",
      "Modality": "MR",
      "NumberOfAverages": 1.0,
      "NumberOfPhaseEncodingSteps": 64,
      "PercentPhaseFieldOfView": 100.0,
      "PercentSampling": 100.0,
      "PerformedProcedureStepStartTime": "141447.800000",
      "PhotometricInterpretation": "MONOCHROME2",
      "PixelBandwidth": 1815.0,
      "PixelRepresentation": 0,
      "PixelSpacing": [3.0, 3.0],
      "ProtocolName": "EPI_DGIST_1",
      "RepetitionTime": 2000.0,
      "Rows": 384,
      "SAR": 0.12697232001165,
      "SamplesPerPixel": 1,
      "ScanOptions": "FS",
      "ScanningSequence": "EP",
      "SequenceName": "*epfid2d1_64",
      "SequenceVariant": "SK",
      "SeriesDescription": "EPI_DGIST_1",
      "SeriesNumber": 2,
      "SeriesTime": "142006.148000",
      "SliceLocation": -83.939081159612,
      "SliceThickness": 4.0,
      "SmallestImagePixelValue": 0,
      "SoftwareVersions": "syngo MR E11",
      "SpacingBetweenSlices": 4.7999999061834,
      "SpecificCharacterSet": "ISO_IR 100",
      "StudyID": "1",
      "StudyTime": "141447.754000",
      "TransmitCoilName": "Body",
      "VariableFlipAngleFlag": "N",
      "WindowCenterWidthExplanation": "Algo1",
      "dBdt": 0.0},
    "slices": {}
  },
  "time": {
    "samples": {
      "AcquisitionNumber": [1, 2, 3, 4, 5, 6, 7, 8, 9, 10, 11, 12, 13, 14, 15, 16, 17, 18, 19, 20, 21, 22, 23, 24, 25, 26, 27, 28, 29, 30, 31, 32, 33, 34, 35, 36, 37, 38, 39, 40, 41, 42, 43, 44, 45, 46, 47, 48, 49, 50, 51, 52, 53, 54, 55, 56, 57, 58, 59, 60, 61, 62, 63, 64, 65, 66, 67, 68, 69, 70, 71, 72, 73, 74, 75, 76, 77, 78, 79, 80, 81, 82, 83, 84, 85, 86, 87, 88, 89, 90, 91, 92, 93, 94, 95, 96, 97, 98, 99, 100, 101, 102, 103, 104, 105, 106, 107, 108, 109, 110, 111, 112, 113, 114, 115, 116, 117, 118, 119, 120, 121, 122, 123, 124, 125, 126, 127, 128, 129, 130, 131, 132, 133, 134, 135, 136, 137, 138, 139, 140, 141, 142, 143, 144, 145, 146, 147, 148, 149, 150, 151, 152, 153, 154, 155, 156, 157, 158, 159, 160, 161, 162, 163, 164, 165, 166, 167, 168, 169, 170, 171, 172, 173, 174, 175, 176, 177, 178, 179, 180, 181, 182, 183, 184, 185, 186, 187, 188, 189, 190, 191, 192, 193, 194, 195, 196, 197, 198, 199, 200, 201, 202, 203, 204, 205, 206, 207, 208, 209, 210, 211, 212, 213, 214, 215, 216, 217, 218, 219, 220, 221, 222, 223, 224, 225, 226, 227, 228, 229, 230, 231, 232, 233, 234, 235, 236, 237, 238, 239, 240, 241, 242, 243, 244, 245, 246, 247, 248, 249, 250, 251, 252, 253, 254, 255, 256, 257, 258, 259, 260, 261, 262, 263, 264, 265, 266, 267, 268, 269, 270, 271, 272, 273, 274, 275, 276, 277, 278, 279, 280, 281, 282, 283, 284, 285, 286, 287, 288, 289, 290, 291, 292, 293, 294, 295, 296, 297, 298, 299, 300, 301, 302, 303, 304, 305, 306, 307, 308, 309, 310, 311, 312, 313, 314, 315, 316, 317, 318, 319, 320, 321, 322, 323, 324, 325, 326, 327, 328, 329, 330, 331, 332, 333, 334, 335, 336, 337, 338, 339, 340, 341, 342, 343, 344, 345, 346, 347, 348, 349, 350, 351, 352, 353, 354, 355, 356, 357, 358, 359, 360, 361, 362, 363, 364, 365, 366, 367, 368, 369, 370, 371, 372, 373, 374, 375, 376, 377, 378, 379, 380, 381, 382, 383, 384, 385, 386, 387, 388, 389, 390, 391, 392, 393, 394, 395, 396, 397, 398, 399, 400, 401, 402, 403, 404, 405, 406, 407, 408, 409, 410, 411, 412, 413, 414, 415, 416, 417, 418, 419, 420, 421, 422, 423, 424, 425, 426, 427, 428, 429, 430, 431, 432, 433, 434, 435, 436, 437, 438, 439, 440, 441, 442, 443, 444, 445, 446, 447, 448, 449, 450, 451, 452, 453, 454, 455, 456, 457, 458, 459, 460, 461, 462, 463, 464, 465, 466, 467, 468, 469, 470, 471, 472, 473, 474, 475, 476, 477, 478, 479, 480, 481, 482, 483, 484, 485, 486, 487, 488, 489, 490, 491, 492, 493, 494, 495, 496, 497, 498, 499, 500, 501, 502, 503, 504, 505, 506, 507, 508, 509, 510, 511, 512, 513, 514],
      "AcquisitionTime": ["141918.465000", "141920.465000", "141922.465000", "141924.465000", "141926.465000", "141928.465000", "141930.465000", "141932.465000", "141934.465000", "141936.465000", "141938.465000", "141940.465000", "141942.465000", "141944.465000", "141946.465000", "141948.465000", "141950.465000", "141952.465000", "141954.465000", "141956.465000", "141958.465000", "142000.465000", "142002.465000", "142004.465000", "142006.465000", "142008.465000", "142010.465000", "142012.465000", "142014.465000", "142016.465000", "142018.465000", "142020.465000", "142022.465000", "142024.465000", "142026.465000", "142028.465000", "142030.465000", "142032.465000", "142034.465000", "142036.465000", "142038.465000", "142040.465000", "142042.465000", "142044.465000", "142046.465000", "142048.465000", "142050.465000", "142052.465000", "142054.465000", "142056.465000", "142058.465000", "142100.465000", "142102.465000", "142104.465000", "142106.465000", "142108.465000", "142110.465000", "142112.465000", "142114.465000", "142116.465000", "142118.465000", "142120.465000", "142122.465000", "142124.465000", "142126.465000", "142128.465000", "142130.465000", "142132.465000", "142134.465000", "142136.465000", "142138.465000", "142140.465000", "142142.465000", "142144.465000", "142146.465000", "142148.465000", "142150.465000", "142152.465000", "142154.465000", "142156.465000", "142158.465000", "142200.465000", "142202.465000", "142204.465000", "142206.465000", "142208.465000", "142210.465000", "142212.465000", "142214.465000", "142216.465000", "142218.465000", "142220.465000", "142222.465000", "142224.465000", "142226.465000", "142228.465000", "142230.465000", "142232.465000", "142234.465000", "142236.465000", "142238.465000", "142240.465000", "142242.465000", "142244.465000", "142246.465000", "142248.465000", "142250.465000", "142252.465000", "142254.465000", "142256.465000", "142258.465000", "142300.465000", "142302.465000", "142304.465000", "142306.465000", "142308.465000", "142310.465000", "142312.465000", "142314.465000", "142316.465000", "142318.465000", "142320.465000", "142322.465000", "142324.465000", "142326.465000", "142328.465000", "142330.465000", "142332.465000", "142334.465000", "142336.465000", "142338.465000", "142340.465000", "142342.465000", "142344.465000", "142346.465000", "142348.465000", "142350.465000", "142352.465000", "142354.465000", "142356.465000", "142358.465000", "142400.465000", "142402.465000", "142404.465000", "142406.465000", "142408.465000", "142410.465000", "142412.465000", "142414.465000", "142416.465000", "142418.465000", "142420.465000", "142422.465000", "142424.465000", "142426.465000", "142428.465000", "142430.465000", "142432.465000", "142434.465000", "142436.465000", "142438.465000", "142440.465000", "142442.465000", "142444.465000", "142446.465000", "142448.465000", "142450.465000", "142452.465000", "142454.465000", "142456.465000", "142458.465000", "142500.465000", "142502.465000", "142504.465000", "142506.465000", "142508.465000", "142510.465000", "142512.465000", "142514.465000", "142516.465000", "142518.465000", "142520.465000", "142522.465000", "142524.465000", "142526.465000", "142528.465000", "142530.465000", "142532.465000", "142534.465000", "142536.465000", "142538.465000", "142540.465000", "142542.465000", "142544.465000", "142546.465000", "142548.465000", "142550.465000", "142552.465000", "142554.465000", "142556.465000", "142558.465000", "142600.465000", "142602.465000", "142604.465000", "142606.465000", "142608.465000", "142610.465000", "142612.465000", "142614.465000", "142616.465000", "142618.465000", "142620.465000", "142622.465000", "142624.465000", "142626.465000", "142628.465000", "142630.465000", "142632.465000", "142634.465000", "142636.465000", "142638.465000", "142640.465000", "142642.465000", "142644.465000", "142646.465000", "142648.465000", "142650.465000", "142652.465000", "142654.465000", "142656.465000", "142658.465000", "142700.465000", "142702.465000", "142704.465000", "142706.465000", "142708.465000", "142710.465000", "142712.465000", "142714.465000", "142716.465000", "142718.465000", "142720.465000", "142722.465000", "142724.465000", "142726.465000", "142728.465000", "142730.465000", "142732.465000", "142734.465000", "142736.465000", "142738.465000", "142740.465000", "142742.465000", "142744.465000", "142746.465000", "142748.465000", "142750.465000", "142752.465000", "142754.465000", "142756.465000", "142758.465000", "142800.465000", "142802.465000", "142804.465000", "142806.465000", "142808.465000", "142810.465000", "142812.465000", "142814.465000", "142816.465000", "142818.465000", "142820.465000", "142822.465000", "142824.465000", "142826.465000", "142828.465000", "142830.465000", "142832.465000", "142834.465000", "142836.465000", "142838.465000", "142840.465000", "142842.465000", "142844.465000", "142846.465000", "142848.465000", "142850.465000", "142852.465000", "142854.465000", "142856.465000", "142858.465000", "142900.465000", "142902.465000", "142904.465000", "142906.465000", "142908.465000", "142910.465000", "142912.465000", "142914.465000", "142916.465000", "142918.465000", "142920.465000", "142922.465000", "142924.465000", "142926.465000", "142928.465000", "142930.465000", "142932.465000", "142934.465000", "142936.465000", "142938.465000", "142940.465000", "142942.465000", "142944.465000", "142946.465000", "142948.465000", "142950.465000", "142952.465000", "142954.465000", "142956.465000", "142958.465000", "143000.465000", "143002.465000", "143004.465000", "143006.465000", "143008.465000", "143010.465000", "143012.465000", "143014.465000", "143016.465000", "143018.465000", "143020.465000", "143022.465000", "143024.465000", "143026.465000", "143028.465000", "143030.465000", "143032.465000", "143034.465000", "143036.465000", "143038.465000", "143040.465000", "143042.465000", "143044.465000", "143046.465000", "143048.465000", "143050.465000", "143052.465000", "143054.465000", "143056.465000", "143058.465000", "143100.465000", "143102.465000", "143104.465000", "143106.465000", "143108.465000", "143110.465000", "143112.465000", "143114.465000", "143116.465000", "143118.465000", "143120.465000", "143122.465000", "143124.465000", "143126.465000", "143128.465000", "143130.465000", "143132.465000", "143134.465000", "143136.465000", "143138.465000", "143140.465000", "143142.465000", "143144.465000", "143146.465000", "143148.465000", "143150.465000", "143152.465000", "143154.465000", "143156.465000", "143158.465000", "143200.465000", "143202.465000", "143204.465000", "143206.465000", "143208.465000", "143210.465000", "143212.465000", "143214.465000", "143216.465000", "143218.465000", "143220.465000", "143222.465000", "143224.465000", "143226.465000", "143228.465000", "143230.465000", "143232.465000", "143234.465000", "143236.465000", "143238.465000", "143240.465000", "143242.465000", "143244.465000", "143246.465000", "143248.465000", "143250.465000", "143252.465000", "143254.465000", "143256.465000", "143258.465000", "143300.465000", "143302.465000", "143304.465000", "143306.465000", "143308.465000", "143310.465000", "143312.465000", "143314.465000", "143316.465000", "143318.465000", "143320.465000", "143322.465000", "143324.465000", "143326.465000", "143328.465000", "143330.465000", "143332.465000", "143334.465000", "143336.465000", "143338.465000", "143340.465000", "143342.465000", "143344.465000", "143346.465000", "143348.465000", "143350.465000", "143352.465000", "143354.465000", "143356.465000", "143358.465000", "143400.465000", "143402.465000", "143404.465000", "143406.465000", "143408.465000", "143410.465000", "143412.465000", "143414.465000", "143416.465000", "143418.465000", "143420.465000", "143422.465000", "143424.465000", "143426.465000", "143428.465000", "143430.465000", "143432.465000", "143434.465000", "143436.465000", "143438.465000", "143440.465000", "143442.465000", "143444.465000", "143446.465000", "143448.465000", "143450.465000", "143452.465000", "143454.465000", "143456.465000", "143458.465000", "143500.465000", "143502.465000", "143504.465000", "143506.465000", "143508.465000", "143510.465000", "143512.465000", "143514.465000", "143516.465000", "143518.465000", "143520.465000", "143522.465000", "143524.465000", "143526.465000", "143528.465000", "143530.465000", "143532.465000", "143534.465000", "143536.465000", "143538.465000", "143540.465000", "143542.465000", "143544.465000", "143546.465000", "143548.465000", "143550.465000", "143552.465000", "143554.465000", "143556.465000", "143558.465000", "143600.465000", "143602.465000", "143604.465000", "143606.465000", "143608.465000", "143610.465000", "143612.465000", "143614.465000", "143616.465000", "143618.465000", "143620.465000", "143622.465000", "143624.465000"],
      "ContentTime": ["142006.152000", "142006.155000", "142006.158000", "142006.160000", "142006.174000", "142006.176000", "142006.179000", "142006.182000", "142006.185000", "142006.187000", "142006.189000", "142006.192000", "142006.194000", "142006.197000", "142006.199000", "142006.202000", "142006.204000", "142006.207000", "142006.209000", "142006.212000", "142006.214000", "142006.217000", "142006.219000", "142006.222000", "142046.148000", "142046.150000", "142046.153000", "142046.156000", "142046.158000", "142046.161000", "142046.163000", "142046.166000", "142046.168000", "142046.171000", "142046.174000", "142046.176000", "142046.179000", "142046.181000", "142046.184000", "142046.186000", "142046.189000", "142046.191000", "142046.194000", "142046.196000", "142126.146000", "142126.149000", "142126.152000", "142126.154000", "142126.157000", "142126.165000", "142126.168000", "142126.170000", "142126.173000", "142126.175000", "142126.178000", "142126.180000", "142126.183000", "142126.185000", "142126.188000", "142126.190000", "142126.192000", "142126.195000", "142126.197000", "142126.200000", "142206.146000", "142206.149000", "142206.152000", "142206.154000", "142206.157000", "142206.159000", "142206.162000", "142206.164000", "142206.167000", "142206.169000", "142206.172000", "142206.174000", "142206.177000", "142206.179000", "142206.182000", "142206.184000", "142206.187000", "142206.189000", "142206.191000", "142206.194000", "142226.147000", "142226.149000", "142226.152000", "142226.154000", "142226.157000", "142226.159000", "142226.162000", "142226.164000", "142226.167000", "142226.169000", "142306.147000", "142306.150000", "142306.153000", "142306.155000", "142306.158000", "142306.160000", "142306.163000", "142306.165000", "142306.168000", "142306.170000", "142306.173000", "142306.175000", "142306.178000", "142306.180000", "142306.187000", "142306.189000", "142306.192000", "142306.194000", "142306.197000", "142306.199000", "142346.146000", "142346.149000", "142346.152000", "142346.154000", "142346.157000", "142346.159000", "142346.162000", "142346.164000", "142346.167000", "142346.169000", "142346.172000", "142346.174000", "142346.176000", "142346.179000", "142346.182000", "142346.184000", "142346.187000", "142346.189000", "142346.192000", "142346.194000", "142426.146000", "142426.149000", "142426.152000", "142426.154000", "142426.157000", "142426.160000", "142426.162000", "142426.165000", "142426.167000", "142426.169000", "142426.172000", "142426.174000", "142426.177000", "142426.179000", "142426.182000", "142426.184000", "142426.187000", "142426.189000", "142426.192000", "142426.194000", "142506.147000", "142506.150000", "142506.153000", "142506.155000", "142506.158000", "142506.160000", "142506.163000", "142506.165000", "142506.168000", "142506.170000", "142506.173000", "142506.175000", "142506.178000", "142506.180000", "142506.183000", "142506.185000", "142506.188000", "142506.190000", "142506.193000", "142506.195000", "142546.147000", "142546.150000", "142546.153000", "142546.155000", "142546.158000", "142546.160000", "142546.163000", "142546.165000", "142546.168000", "142546.170000", "142546.173000", "142546.175000", "142546.178000", "142546.180000", "142546.183000", "142546.185000", "142546.188000", "142546.190000", "142546.193000", "142546.195000", "142626.146000", "142626.149000", "142626.152000", "142626.154000", "142626.157000", "142626.160000", "142626.162000", "142626.165000", "142626.167000", "142626.169000", "142626.172000", "142626.174000", "142626.177000", "142626.179000", "142626.182000", "142626.184000", "142626.187000", "142626.189000", "142626.192000", "142626.194000", "142706.146000", "142706.149000", "142706.152000", "142706.154000", "142706.157000", "142706.159000", "142706.162000", "142706.164000", "142706.167000", "142706.169000", "142706.172000", "142706.174000", "142706.177000", "142706.179000", "142706.181000", "142706.184000", "142706.186000", "142706.189000", "142706.191000", "142706.194000", "142746.148000", "142746.150000", "142746.153000", "142746.155000", "142746.158000", "142746.160000", "142746.163000", "142746.165000", "142746.168000", "142746.170000", "142746.173000", "142746.175000", "142746.178000", "142746.180000", "142746.183000", "142746.185000", "142746.188000", "142746.190000", "142746.192000", "142746.195000", "142826.146000", "142826.149000", "142826.152000", "142826.154000", "142826.157000", "142826.159000", "142826.162000", "142826.164000", "142826.167000", "142826.169000", "142826.172000", "142826.174000", "142826.177000", "142826.179000", "142826.182000", "142826.184000", "142826.187000", "142826.189000", "142826.192000", "142826.194000", "142906.146000", "142906.149000", "142906.168000", "142906.171000", "142906.173000", "142906.176000", "142906.178000", "142906.181000", "142906.183000", "142906.186000", "142906.188000", "142906.190000", "142906.193000", "142906.195000", "142906.198000", "142906.200000", "142906.203000", "142906.205000", "142906.208000", "142906.210000", "142946.147000", "142946.150000", "142946.153000", "142946.155000", "142946.158000", "142946.160000", "142946.163000", "142946.165000", "142946.168000", "142946.170000", "142946.173000", "142946.175000", "142946.178000", "142946.180000", "142946.182000", "142946.185000", "142946.187000", "142946.190000", "142946.192000", "142946.195000", "143026.147000", "143026.150000", "143026.153000", "143026.155000", "143026.158000", "143026.161000", "143026.163000", "143026.166000", "143026.168000", "143026.170000", "143026.173000", "143026.175000", "143026.178000", "143026.180000", "143026.183000", "143026.185000", "143026.188000", "143026.190000", "143026.193000", "143026.195000", "143106.147000", "143106.149000", "143106.152000", "143106.154000", "143106.157000", "143106.159000", "143106.162000", "143106.165000", "143106.167000", "143106.170000", "143106.172000", "143106.175000", "143106.177000", "143106.179000", "143106.182000", "143106.184000", "143106.187000", "143106.189000", "143106.192000", "143106.194000", "143146.146000", "143146.149000", "143146.152000", "143146.154000", "143146.157000", "143146.159000", "143146.162000", "143146.164000", "143146.167000", "143146.169000", "143146.172000", "143146.174000", "143146.177000", "143146.179000", "143146.182000", "143146.184000", "143146.187000", "143146.189000", "143146.192000", "143146.194000", "143226.148000", "143226.150000", "143226.153000", "143226.156000", "143226.158000", "143226.161000", "143226.163000", "143226.166000", "143226.168000", "143226.171000", "143226.173000", "143226.176000", "143226.178000", "143226.181000", "143226.183000", "143226.186000", "143226.188000", "143226.191000", "143226.193000", "143226.196000", "143306.146000", "143306.149000", "143306.152000", "143306.154000", "143306.157000", "143306.160000", "143306.162000", "143306.165000", "143306.167000", "143306.170000", "143306.172000", "143306.175000", "143306.177000", "143306.180000", "143306.182000", "143306.185000", "143306.187000", "143306.190000", "143306.192000", "143306.194000", "143346.146000", "143346.149000", "143346.152000", "143346.154000", "143346.157000", "143346.159000", "143346.162000", "143346.164000", "143346.167000", "143346.169000", "143346.172000", "143346.174000", "143346.177000", "143346.179000", "143346.182000", "143346.184000", "143346.187000", "143346.189000", "143346.192000", "143346.194000", "143426.147000", "143426.150000", "143426.153000", "143426.155000", "143426.158000", "143426.161000", "143426.163000", "143426.166000", "143426.168000", "143426.171000", "143426.173000", "143426.176000", "143426.178000", "143426.181000", "143426.183000", "143426.186000", "143426.188000", "143426.191000", "143426.193000", "143426.196000", "143506.147000", "143506.150000", "143506.153000", "143506.155000", "143506.158000", "143506.161000", "143506.163000", "143506.166000", "143506.168000", "143506.171000", "143506.173000", "143506.176000", "143506.178000", "143506.181000", "143506.183000", "143506.186000", "143506.188000", "143506.191000", "143506.193000", "143506.195000", "143546.146000", "143546.149000", "143546.152000", "143546.154000", "143546.157000", "143546.160000", "143546.162000", "143546.165000", "143546.167000", "143546.170000", "143546.172000", "143546.175000", "143546.177000", "143546.180000", "143546.182000", "143546.185000", "143546.187000", "143546.190000", "143546.192000", "143546.195000", "143625.601000", "143625.604000", "143625.607000", "143625.609000", "143625.612000", "143625.614000", "143625.617000", "143625.619000", "143625.622000", "143625.624000", "143625.627000", "143625.630000", "143625.633000", "143625.640000", "143625.645000", "143625.647000", "143625.656000", "143625.659000", "143625.664000", "143625.666000"],
