{
  "AcquisitionMatrixPE": 64,
  "AcquisitionNumber": 1,
  "AcquisitionTime": "13:08:53.440000",
  "BandwidthPerPixelPhaseEncode": 25.202,
  "BaseResolution": 64,
  "BodyPartExamined": "BRAIN",
  "ConsistencyInfo": "N4_VD13C_LATEST_20121124",
  "ConversionSoftware": "dcm2niix",
  "ConversionSoftwareVersion": "v1.0.20201102",
  "DerivedVendorReportedEchoSpacing": 0.00061999,
  "DeviceSerialNumber": "45758",
  "DwellTime": 4.3e-06,
  "EchoTime": 0.03,
  "EchoTrainLength": 64,
  "EffectiveEchoSpacing": 0.00061999,
  "FlipAngle": 90,
  "ImageOrientationPatientDICOM": [0.999798, -0.0104828, 0.0171549, 0.0104702, 0.999945, 0.000820419],
  "ImageType": [
    "ORIGINAL",
    "PRIMARY",
    "M",
    "ND",
    "MOSAIC"
],
  "ImagingFrequency": 123.2,
  "InPlanePhaseEncodingDirectionDICOM": "ROW",
  "InstitutionAddress": "Street StreetNo,City /652E4B/,District,KR,ZIP",
  "InstitutionName": "DGMIF",
  "InstitutionalDepartmentName": "Department",
  "MRAcquisitionType": "2D",
  "MagneticFieldStrength": 3,
  "Manufacturer": "Siemens",
  "ManufacturersModelName": "Skyra",
  "Modality": "MR",
  "PartialFourier": 1,
  "PatientPosition": "HFS",
  "PercentPhaseFOV": 100,
  "PercentSampling": 100,
  "PhaseEncodingDirection": "i",
  "PhaseEncodingSteps": 64,
  "PhaseResolution": 1,
  "PixelBandwidth": 1815,
  "ProcedureStepDescription": "DGMIF^DGIST_Jeon",
  "ProtocolName": "EPI_DGIST_3",
  "PulseSequenceDetails": "%SiemensSeq%\\ep2d_bold",
  "ReceiveCoilActiveElements": "HC1-7",
  "ReceiveCoilName": "HeadNeck_64",
  "ReconMatrixPE": 64,
  "RepetitionTime": 2,
  "SAR": 0.120295,
  "ScanOptions": "FS",
  "ScanningSequence": "EP",
  "SequenceName": "*epfid2d1_64",
  "SequenceVariant": "SK",
  "SeriesDescription": "EPI_DGIST_3",
  "SeriesNumber": 4,
  "ShimSetting": [-9739, -13667, -8348, 264, -507, -576, -359, -184],
  "SliceThickness": 4,
  "SliceTiming": [0.99, 0, 1.0575, 0.0675, 1.1225, 0.1325, 1.19, 0.2, 1.255, 0.265, 1.32, 0.33, 1.3875, 0.3975, 1.4525, 0.4625, 1.52, 0.53, 1.585, 0.595, 1.65, 0.66, 1.7175, 0.7275, 1.7825, 0.7925, 1.85, 0.86, 1.915, 0.925],
  "SoftwareVersions": "syngo MR D13C",
  "SpacingBetweenSlices": 4.8,
  "StationName": "AWP45758",
  "TaskName": "asrt",
  "TotalReadoutTime": 0.0390594,
  "TxRefAmp": 302.765,
  "dcmmeta_affine": [
    [-2.9993937015533447, 0.03141072392463684, 0.08238036185503006, 92.77417755126953],
    [0.03144833445549011, 2.9998345375061035, 0.0030750585719943047, -119.82923889160156],
    [0.051464762538671494, -0.0024612576235085726, 4.799292087554932, -80.43859100341797],
    [0.0, 0.0, 0.0, 1.0]
],
  "dcmmeta_reorient_transform": [
    [0.0, -1.0, 0.0, 63.0],
    [1.0, 0.0, 0.0, 0.0],
    [0.0, 0.0, 1.0, 0.0],
    [0.0, 0.0, 0.0, 1.0]
],
  "dcmmeta_shape": [64, 64, 30, 364],
  "dcmmeta_slice_dim": 2,
  "dcmmeta_version": 0.6,
  "global": {
    "const": {
      "AcquisitionMatrix": [0, 64, 64, 0],
      "AngioFlag": "N",
      "BitsAllocated": 16,
      "BitsStored": 12,
      "BodyPartExamined": "BRAIN",
      "Columns": 384,
      "EchoNumbers": 1,
      "EchoTime": 30.0,
      "EchoTrainLength": 64,
      "FlipAngle": 90.0,
      "HighBit": 11,
      "ImageOrientationPatient": [0.99979788959278, -0.0104827780717, 0.01715492144338, 0.01047024185336, 0.99994484895311, 0.00082041920591],
      "ImagePositionPatient": [-579.68175790861, -544.1021346392, -89.221815317996],
      "ImageType": [
        "ORIGINAL",
        "PRIMARY",
        "M",
        "ND",
        "MOSAIC"
],
      "ImagedNucleus": "1H",
      "ImagingFrequency": 123.200287,
      "InPlanePhaseEncodingDirection": "ROW",
      "MRAcquisitionType": "2D",
      "MagneticFieldStrength": 3.0,
      "Manufacturer": "SIEMENS",
      "ManufacturerModelName": "Skyra",
      "Modality": "MR",
      "NumberOfAverages": 1.0,
      "NumberOfPhaseEncodingSteps": 64,
      "PercentPhaseFieldOfView": 100.0,
      "PercentSampling": 100.0,
      "PerformedProcedureStepStartTime": "122518.098000",
      "PhotometricInterpretation": "MONOCHROME2",
      "PixelBandwidth": 1815.0,
      "PixelRepresentation": 0,
      "PixelSpacing": [3.0, 3.0],
      "ProtocolName": "EPI_DGIST_3",
      "RepetitionTime": 2000.0,
      "Rows": 384,
      "SAR": 0.12029535219207,
      "SamplesPerPixel": 1,
      "ScanOptions": "FS",
      "ScanningSequence": "EP",
      "SequenceName": "*epfid2d1_64",
      "SequenceVariant": "SK",
      "SeriesDescription": "EPI_DGIST_3",
      "SeriesNumber": 4,
      "SeriesTime": "130939.097000",
      "SliceLocation": -78.911251645032,
      "SliceThickness": 4.0,
      "SmallestImagePixelValue": 0,
      "SoftwareVersions": "syngo MR D13C",
      "SpacingBetweenSlices": 4.800000037867,
      "SpecificCharacterSet": "ISO_IR 100",
      "StudyID": "1",
      "StudyTime": "122518.030000",
      "TimeOfLastCalibration": ["123723.000000", "123723.000000"],
      "TransmitCoilName": "Body",
      "VariableFlipAngleFlag": "N",
      "WindowCenterWidthExplanation": "Algo1",
      "dBdt": 0.0},
    "slices": {}
  },
  "time": {
    "samples": {
      "AcquisitionNumber": [1, 2, 3, 4, 5, 6, 7, 8, 9, 10, 11, 12, 13, 14, 15, 16, 17, 18, 19, 20, 21, 22, 23, 24, 25, 26, 27, 28, 29, 30, 31, 32, 33, 34, 35, 36, 37, 38, 39, 40, 41, 42, 43, 44, 45, 46, 47, 48, 49, 50, 51, 52, 53, 54, 55, 56, 57, 58, 59, 60, 61, 62, 63, 64, 65, 66, 67, 68, 69, 70, 71, 72, 73, 74, 75, 76, 77, 78, 79, 80, 81, 82, 83, 84, 85, 86, 87, 88, 89, 90, 91, 92, 93, 94, 95, 96, 97, 98, 99, 100, 101, 102, 103, 104, 105, 106, 107, 108, 109, 110, 111, 112, 113, 114, 115, 116, 117, 118, 119, 120, 121, 122, 123, 124, 125, 126, 127, 128, 129, 130, 131, 132, 133, 134, 135, 136, 137, 138, 139, 140, 141, 142, 143, 144, 145, 146, 147, 148, 149, 150, 151, 152, 153, 154, 155, 156, 157, 158, 159, 160, 161, 162, 163, 164, 165, 166, 167, 168, 169, 170, 171, 172, 173, 174, 175, 176, 177, 178, 179, 180, 181, 182, 183, 184, 185, 186, 187, 188, 189, 190, 191, 192, 193, 194, 195, 196, 197, 198, 199, 200, 201, 202, 203, 204, 205, 206, 207, 208, 209, 210, 211, 212, 213, 214, 215, 216, 217, 218, 219, 220, 221, 222, 223, 224, 225, 226, 227, 228, 229, 230, 231, 232, 233, 234, 235, 236, 237, 238, 239, 240, 241, 242, 243, 244, 245, 246, 247, 248, 249, 250, 251, 252, 253, 254, 255, 256, 257, 258, 259, 260, 261, 262, 263, 264, 265, 266, 267, 268, 269, 270, 271, 272, 273, 274, 275, 276, 277, 278, 279, 280, 281, 282, 283, 284, 285, 286, 287, 288, 289, 290, 291, 292, 293, 294, 295, 296, 297, 298, 299, 300, 301, 302, 303, 304, 305, 306, 307, 308, 309, 310, 311, 312, 313, 314, 315, 316, 317, 318, 319, 320, 321, 322, 323, 324, 325, 326, 327, 328, 329, 330, 331, 332, 333, 334, 335, 336, 337, 338, 339, 340, 341, 342, 343, 344, 345, 346, 347, 348, 349, 350, 351, 352, 353, 354, 355, 356, 357, 358, 359, 360, 361, 362, 363, 364],
      "AcquisitionTime": ["130853.440000", "130855.440000", "130857.440000", "130859.440000", "130901.440000", "130903.440000", "130905.440000", "130907.440000", "130909.440000", "130911.440000", "130913.440000", "130915.440000", "130917.440000", "130919.440000", "130921.440000", "130923.440000", "130925.440000", "130927.440000", "130929.440000", "130931.440000", "130933.440000", "130935.440000", "130937.440000", "130939.440000", "130941.440000", "130943.440000", "130945.440000", "130947.440000", "130949.440000", "130951.442500", "130953.442500", "130955.442500", "130957.442500", "130959.442500", "131001.442500", "131003.442500", "131005.442500", "131007.442500", "131009.442500", "131011.442500", "131013.442500", "131015.442500", "131017.442500", "131019.442500", "131021.442500", "131023.442500", "131025.442500", "131027.442500", "131029.442500", "131031.442500", "131033.442500", "131035.442500", "131037.442500", "131039.442500", "131041.442500", "131043.442500", "131045.442500", "131047.442500", "131049.442500", "131051.442500", "131053.442500", "131055.442500", "131057.442500", "131059.442500", "131101.442500", "131103.442500", "131105.442500", "131107.442500", "131109.442500", "131111.442500", "131113.442500", "131115.442500", "131117.442500", "131119.442500", "131121.442500", "131123.442500", "131125.442500", "131127.442500", "131129.442500", "131131.442500", "131133.442500", "131135.442500", "131137.442500", "131139.442500", "131141.442500", "131143.442500", "131145.442500", "131147.442500", "131149.442500", "131151.442500", "131153.442500", "131155.442500", "131157.442500", "131159.442500", "131201.442500", "131203.442500", "131205.442500", "131207.442500", "131209.442500", "131211.442500", "131213.442500", "131215.442500", "131217.442500", "131219.442500", "131221.442500", "131223.442500", "131225.442500", "131227.442500", "131229.442500", "131231.442500", "131233.442500", "131235.442500", "131237.442500", "131239.442500", "131241.442500", "131243.442500", "131245.442500", "131247.442500", "131249.442500", "131251.442500", "131253.442500", "131255.442500", "131257.442500", "131259.442500", "131301.442500", "131303.442500", "131305.442500", "131307.442500", "131309.442500", "131311.442500", "131313.442500", "131315.442500", "131317.442500", "131319.442500", "131321.442500", "131323.442500", "131325.442500", "131327.442500", "131329.442500", "131331.442500", "131333.442500", "131335.442500", "131337.442500", "131339.442500", "131341.442500", "131343.442500", "131345.442500", "131347.442500", "131349.442500", "131351.442500", "131353.442500", "131355.442500", "131357.442500", "131359.442500", "131401.442500", "131403.442500", "131405.442500", "131407.442500", "131409.442500", "131411.442500", "131413.442500", "131415.442500", "131417.442500", "131419.442500", "131421.442500", "131423.442500", "131425.442500", "131427.442500", "131429.442500", "131431.442500", "131433.442500", "131435.442500", "131437.442500", "131439.442500", "131441.442500", "131443.442500", "131445.442500", "131447.442500", "131449.442500", "131451.442500", "131453.442500", "131455.442500", "131457.442500", "131459.442500", "131501.442500", "131503.442500", "131505.442500", "131507.442500", "131509.442500", "131511.442500", "131513.442500", "131515.442500", "131517.442500", "131519.442500", "131521.442500", "131523.442500", "131525.442500", "131527.442500", "131529.442500", "131531.442500", "131533.442500", "131535.442500", "131537.442500", "131539.442500", "131541.442500", "131543.442500", "131545.442500", "131547.442500", "131549.442500", "131551.442500", "131553.442500", "131555.442500", "131557.442500", "131559.442500", "131601.442500", "131603.442500", "131605.442500", "131607.442500", "131609.442500", "131611.442500", "131613.442500", "131615.442500", "131617.442500", "131619.442500", "131621.442500", "131623.442500", "131625.442500", "131627.442500", "131629.442500", "131631.442500", "131633.442500", "131635.442500", "131637.442500", "131639.442500", "131641.442500", "131643.442500", "131645.442500", "131647.442500", "131649.442500", "131651.442500", "131653.442500", "131655.442500", "131657.442500", "131659.442500", "131701.442500", "131703.442500", "131705.442500", "131707.442500", "131709.442500", "131711.442500", "131713.442500", "131715.442500", "131717.442500", "131719.442500", "131721.442500", "131723.442500", "131725.442500", "131727.442500", "131729.442500", "131731.442500", "131733.442500", "131735.442500", "131737.442500", "131739.442500", "131741.442500", "131743.442500", "131745.442500", "131747.442500", "131749.442500", "131751.442500", "131753.442500", "131755.442500", "131757.442500", "131759.442500", "131801.442500", "131803.442500", "131805.442500", "131807.442500", "131809.442500", "131811.445000", "131813.445000", "131815.445000", "131817.445000", "131819.445000", "131821.445000", "131823.445000", "131825.445000", "131827.445000", "131829.445000", "131831.445000", "131833.445000", "131835.445000", "131837.445000", "131839.445000", "131841.445000", "131843.445000", "131845.445000", "131847.445000", "131849.445000", "131851.445000", "131853.445000", "131855.445000", "131857.445000", "131859.445000", "131901.445000", "131903.445000", "131905.445000", "131907.445000", "131909.445000", "131911.445000", "131913.445000", "131915.445000", "131917.445000", "131919.445000", "131921.445000", "131923.445000", "131925.445000", "131927.445000", "131929.445000", "131931.445000", "131933.445000", "131935.445000", "131937.445000", "131939.445000", "131941.445000", "131943.445000", "131945.445000", "131947.445000", "131949.445000", "131951.445000", "131953.445000", "131955.445000", "131957.445000", "131959.445000", "132001.445000", "132003.445000", "132005.445000", "132007.445000", "132009.445000", "132011.445000", "132013.445000", "132015.445000", "132017.445000", "132019.445000", "132021.445000", "132023.445000", "132025.445000", "132027.445000", "132029.445000", "132031.445000", "132033.445000", "132035.445000", "132037.445000", "132039.445000", "132041.445000", "132043.445000", "132045.445000", "132047.445000", "132049.445000", "132051.445000", "132053.445000", "132055.445000", "132057.445000", "132059.445000"],
      "ContentTime": ["130939.100000", "130939.102000", "130939.112000", "130939.114000", "130939.116000", "130939.118000", "130939.120000", "130939.122000", "130939.124000", "130939.126000", "130939.128000", "130939.130000", "130939.132000", "130939.134000", "130939.136000", "130939.138000", "130939.140000", "130939.142000", "130939.144000", "130939.146000", "130939.148000", "130939.150000", "131019.094000", "131019.097000", "131019.099000", "131019.101000", "131019.102000", "131019.105000", "131019.106000", "131019.108000", "131019.110000", "131019.112000", "131019.114000", "131019.116000", "131019.118000", "131019.120000", "131019.122000", "131019.124000", "131019.126000", "131019.128000", "131019.130000", "131019.132000", "131059.094000", "131059.097000", "131059.102000", "131059.104000", "131059.106000", "131059.108000", "131059.110000", "131059.112000", "131059.114000", "131059.116000", "131059.118000", "131059.120000", "131059.122000", "131059.124000", "131059.126000", "131059.128000", "131059.130000", "131059.132000", "131059.134000", "131059.136000", "131139.094000", "131139.111000", "131139.113000", "131139.115000", "131139.117000", "131139.120000", "131139.122000", "131139.123000", "131139.125000", "131139.127000", "131139.129000", "131139.131000", "131139.133000", "131139.135000", "131139.137000", "131139.139000", "131139.141000", "131139.143000", "131139.145000", "131139.147000", "131159.095000", "131159.098000", "131159.100000", "131159.102000", "131159.104000", "131159.106000", "131159.108000", "131159.110000", "131159.112000", "131159.114000", "131239.094000", "131239.096000", "131239.098000", "131239.101000", "131239.102000", "131239.104000", "131239.106000", "131239.108000", "131239.110000", "131239.112000", "131239.114000", "131239.117000", "131239.118000", "131239.120000", "131239.122000", "131239.125000", "131239.127000", "131239.128000", "131239.130000", "131239.133000", "131319.094000", "131319.096000", "131319.098000", "131319.101000", "131319.102000", "131319.104000", "131319.106000", "131319.109000", "131319.110000", "131319.112000", "131319.114000", "131319.116000", "131319.118000", "131319.120000", "131319.122000", "131319.125000", "131319.127000", "131319.128000", "131319.130000", "131319.133000", "131359.094000", "131359.096000", "131359.098000", "131359.101000", "131359.103000", "131359.105000", "131359.107000", "131359.109000", "131359.111000", "131359.113000", "131359.115000", "131359.117000", "131359.119000", "131359.121000", "131359.123000", "131359.125000", "131359.127000", "131359.129000", "131359.131000", "131359.133000", "131439.094000", "131439.096000", "131439.098000", "131439.101000", "131439.103000", "131439.105000", "131439.107000", "131439.109000", "131439.111000", "131439.113000", "131439.114000", "131439.117000", "131439.119000", "131439.121000", "131439.122000", "131439.125000", "131439.127000", "131439.128000", "131439.131000", "131439.133000", "131519.094000", "131519.096000", "131519.098000", "131519.101000", "131519.103000", "131519.104000", "131519.106000", "131519.109000", "131519.111000", "131519.112000", "131519.114000", "131519.117000", "131519.119000", "131519.121000", "131519.122000", "131519.125000", "131519.127000", "131519.128000", "131519.130000", "131519.133000", "131559.094000", "131559.096000", "131559.098000", "131559.100000", "131559.102000", "131559.104000", "131559.106000", "131559.109000", "131559.110000", "131559.112000", "131559.114000", "131559.117000", "131559.119000", "131559.121000", "131559.123000", "131559.125000", "131559.127000", "131559.129000", "131559.131000", "131559.133000", "131639.095000", "131639.097000", "131639.099000", "131639.102000", "131639.104000", "131639.106000", "131639.108000", "131639.110000", "131639.112000", "131639.114000", "131639.116000", "131639.118000", "131639.120000", "131639.122000", "131639.124000", "131639.126000", "131639.128000", "131639.130000", "131639.132000", "131639.134000", "131719.094000", "131719.097000", "131719.098000", "131719.101000", "131719.103000", "131719.105000", "131719.107000", "131719.109000", "131719.111000", "131719.113000", "131719.115000", "131719.117000", "131719.119000", "131719.121000", "131719.123000", "131719.125000", "131719.127000", "131719.129000", "131719.131000", "131719.133000", "131759.094000", "131759.096000", "131759.098000", "131759.110000", "131759.112000", "131759.114000", "131759.116000", "131759.119000", "131759.121000", "131759.122000", "131759.125000", "131759.127000", "131759.129000", "131759.131000", "131759.133000", "131759.135000", "131759.137000", "131759.139000", "131759.141000", "131759.143000", "131839.094000", "131839.096000", "131839.098000", "131839.100000", "131839.102000", "131839.104000", "131839.106000", "131839.109000", "131839.110000", "131839.112000", "131839.114000", "131839.117000", "131839.119000", "131839.121000", "131839.123000", "131839.125000", "131839.127000", "131839.129000", "131839.131000", "131839.133000", "131919.094000", "131919.096000", "131919.098000", "131919.101000", "131919.103000", "131919.105000", "131919.106000", "131919.109000", "131919.111000", "131919.112000", "131919.114000", "131919.117000", "131919.119000", "131919.120000", "131919.122000", "131919.125000", "131919.127000", "131919.129000", "131919.131000", "131919.133000", "131959.094000", "131959.096000", "131959.098000", "131959.101000", "131959.103000", "131959.105000", "131959.107000", "131959.109000", "131959.111000", "131959.113000", "131959.115000", "131959.117000", "131959.119000", "131959.121000", "131959.123000", "131959.125000", "131959.127000", "131959.129000", "131959.131000", "131959.133000", "132039.094000", "132039.096000", "132039.098000", "132039.101000", "132039.103000", "132039.105000", "132039.107000", "132039.109000", "132039.123000", "132039.125000", "132039.127000", "132039.129000", "132039.136000", "132039.138000", "132039.149000", "132039.151000", "132039.153000", "132039.155000", "132039.157000", "132039.165000", "132101.200000", "132101.202000", "132101.204000", "132101.206000", "132101.208000", "132101.210000", "132101.212000", "132101.214000", "132101.216000", "132101.218000", "132101.220000", "132101.222000"],
      "InstanceCreationTime": ["130939.100000", "130939.102000", "130939.112000", "130939.114000", "130939.116000", "130939.118000", "130939.120000", "130939.122000", "130939.124000", "130939.126000", "130939.128000", "130939.130000", "130939.132000", "130939.134000", "130939.136000", "130939.138000", "130939.140000", "130939.142000", "130939.144000", "130939.146000", "130939.148000", "130939.150000", "131019.094000", "131019.097000", "131019.099000", "131019.101000", "131019.102000", "131019.105000", "131019.106000", "131019.108000", "131019.110000", "131019.112000", "131019.114000", "131019.116000", "131019.118000", "131019.120000", "131019.122000", "131019.124000", "131019.126000", "131019.128000", "131019.130000", "131019.132000", "131059.094000", "131059.097000", "131059.102000", "131059.104000", "131059.106000", "131059.108000", "131059.110000", "131059.112000", "131059.114000", "131059.116000", "131059.118000", "131059.120000", "131059.122000", "131059.124000", "131059.126000", "131059.128000", "131059.130000", "131059.132000", "131059.134000", "131059.136000", "131139.094000", "131139.111000", "131139.113000", "131139.115000", "131139.117000", "131139.120000", "131139.122000", "131139.123000", "131139.125000", "131139.127000", "131139.129000", "131139.131000", "131139.133000", "131139.135000", "131139.137000", "131139.139000", "131139.141000", "131139.143000", "131139.145000", "131139.147000", "131159.095000", "131159.098000", "131159.100000", "131159.102000", "131159.104000", "131159.106000", "131159.108000", "131159.110000", "131159.112000", "131159.114000", "131239.094000", "131239.096000", "131239.098000", "131239.101000", "131239.102000", "131239.104000", "131239.106000", "131239.108000", "131239.110000", "131239.112000", "131239.114000", "131239.117000", "131239.118000", "131239.120000", "131239.122000", "131239.125000", "131239.127000", "131239.128000", "131239.130000", "131239.133000", "131319.094000", "131319.096000", "131319.098000", "131319.101000", "131319.102000", "131319.104000", "131319.106000", "131319.109000", "131319.110000", "131319.112000", "131319.114000", "131319.116000", "131319.118000", "131319.120000", "131319.122000", "131319.125000", "131319.127000", "131319.128000", "131319.130000", "131319.133000", "131359.094000", "131359.096000", "131359.098000", "131359.101000", "131359.103000", "131359.105000", "131359.107000", "131359.109000", "131359.111000", "131359.113000", "131359.115000", "131359.117000", "131359.119000", "131359.121000", "131359.123000", "131359.125000", "131359.127000", "131359.129000", "131359.131000", "131359.133000", "131439.094000", "131439.096000", "131439.098000", "131439.101000", "131439.103000", "131439.105000", "131439.107000", "131439.109000", "131439.111000", "131439.113000", "131439.114000", "131439.117000", "131439.119000", "131439.121000", "131439.122000", "131439.125000", "131439.127000", "131439.128000", "131439.131000", "131439.133000", "131519.094000", "131519.096000", "131519.098000", "131519.101000", "131519.103000", "131519.104000", "131519.106000", "131519.109000", "131519.111000", "131519.112000", "131519.114000", "131519.117000", "131519.119000", "131519.121000", "131519.122000", "131519.125000", "131519.127000", "131519.128000", "131519.130000", "131519.133000", "131559.094000", "131559.096000", "131559.098000", "131559.100000", "131559.102000", "131559.104000", "131559.106000", "131559.109000", "131559.110000", "131559.112000", "131559.114000", "131559.117000", "131559.119000", "131559.121000", "131559.123000", "131559.125000", "131559.127000", "131559.129000", "131559.131000", "131559.133000", "131639.095000", "131639.097000", "131639.099000", "131639.102000", "131639.104000", "131639.106000", "131639.108000", "131639.110000", "131639.112000", "131639.114000", "131639.116000", "131639.118000", "131639.120000", "131639.122000", "131639.124000", "131639.126000", "131639.128000", "131639.130000", "131639.132000", "131639.134000", "131719.094000", "131719.097000", "131719.098000", "131719.101000", "131719.103000", "131719.105000", "131719.107000", "131719.109000", "131719.111000", "131719.113000", "131719.115000", "131719.117000", "131719.119000", "131719.121000", "131719.123000", "131719.125000", "131719.127000", "131719.129000", "131719.131000", "131719.133000", "131759.094000", "131759.096000", "131759.098000", "131759.110000", "131759.112000", "131759.114000", "131759.116000", "131759.119000", "131759.121000", "131759.122000", "131759.125000", "131759.127000", "131759.129000", "131759.131000", "131759.133000", "131759.135000", "131759.137000", "131759.139000", "131759.141000", "131759.143000", "131839.094000", "131839.096000", "131839.098000", "131839.100000", "131839.102000", "131839.104000", "131839.106000", "131839.109000", "131839.110000", "131839.112000", "131839.114000", "131839.117000", "131839.119000", "131839.121000", "131839.123000", "131839.125000", "131839.127000", "131839.129000", "131839.131000", "131839.133000", "131919.094000", "131919.096000", "131919.098000", "131919.101000", "131919.103000", "131919.105000", "131919.106000", "131919.109000", "131919.111000", "131919.112000", "131919.114000", "131919.117000", "131919.119000", "131919.120000", "131919.122000", "131919.125000", "131919.127000", "131919.129000", "131919.131000", "131919.133000", "131959.094000", "131959.096000", "131959.098000", "131959.101000", "131959.103000", "131959.105000", "131959.107000", "131959.109000", "131959.111000", "131959.113000", "131959.115000", "131959.117000", "131959.119000", "131959.121000", "131959.123000", "131959.125000", "131959.127000", "131959.129000", "131959.131000", "131959.133000", "132039.094000", "132039.096000", "132039.098000", "132039.101000", "132039.103000", "132039.105000", "132039.107000", "132039.109000", "132039.123000", "132039.125000", "132039.127000", "132039.129000", "132039.136000", "132039.138000", "132039.149000", "132039.151000", "132039.153000", "132039.155000", "132039.157000", "132039.165000", "132101.200000", "132101.202000", "132101.204000", "132101.206000", "132101.208000", "132101.210000", "132101.212000", "132101.214000", "132101.216000", "132101.218000", "132101.220000", "132101.222000"],
      "InstanceNumber": [1, 2, 3, 4, 5, 6, 7, 8, 9, 10, 11, 12, 13, 14, 15, 16, 17, 18, 19, 20, 21, 22, 23, 24, 25, 26, 27, 28, 29, 30, 31, 32, 33, 34, 35, 36, 37, 38, 39, 40, 41, 42, 43, 44, 45, 46, 47, 48, 49, 50, 51, 52, 53, 54, 55, 56, 57, 58, 59, 60, 61, 62, 63, 64, 65, 66, 67, 68, 69, 70, 71, 72, 73, 74, 75, 76, 77, 78, 79, 80, 81, 82, 83, 84, 85, 86, 87, 88, 89, 90, 91, 92, 93, 94, 95, 96, 97, 98, 99, 100, 101, 102, 103, 104, 105, 106, 107, 108, 109, 110, 111, 112, 113, 114, 115, 116, 117, 118, 119, 120, 121, 122, 123, 124, 125, 126, 127, 128, 129, 130, 131, 132, 133, 134, 135, 136, 137, 138, 139, 140, 141, 142, 143, 144, 145, 146, 147, 148, 149, 150, 151, 152, 153, 154, 155, 156, 157, 158, 159, 160, 161, 162, 163, 164, 165, 166, 167, 168, 169, 170, 171, 172, 173, 174, 175, 176, 177, 178, 179, 180, 181, 182, 183, 184, 185, 186, 187, 188, 189, 190, 191, 192, 193, 194, 195, 196, 197, 198, 199, 200, 201, 202, 203, 204, 205, 206, 207, 208, 209, 210, 211, 212, 213, 214, 215, 216, 217, 218, 219, 220, 221, 222, 223, 224, 225, 226, 227, 228, 229, 230, 231, 232, 233, 234, 235, 236, 237, 238, 239, 240, 241, 242, 243, 244, 245, 246, 247, 248, 249, 250, 251, 252, 253, 254, 255, 256, 257, 258, 259, 260, 261, 262, 263, 264, 265, 266, 267, 268, 269, 270, 271, 272, 273, 274, 275, 276, 277, 278, 279, 280, 281, 282, 283, 284, 285, 286, 287, 288, 289, 290, 291, 292, 293, 294, 295, 296, 297, 298, 299, 300, 301, 302, 303, 304, 305, 306, 307, 308, 309, 310, 311, 312, 313, 314, 315, 316, 317, 318, 319, 320, 321, 322, 323, 324, 325, 326, 327, 328, 329, 330, 331, 332, 333, 334, 335, 336, 337, 338, 339, 340, 341, 342, 343, 344, 345, 346, 347, 348, 349, 350, 351, 352, 353, 354, 355, 356, 357, 358, 359, 360, 361, 362, 363, 364],
      "LargestImagePixelValue": [1836, 1798, 1808, 1815, 1812, 1803, 1797, 1805, 1807, 1808, 1809, 1794, 1799, 1808, 1807, 1804, 1812, 1810, 1813, 1812, 1818, 1815, 1817, 1807, 1807, 1813, 1813, 1819, 1825, 1810, 1895, 1779, 1763, 1816, 1806, 1789, 1775, 1776, 1782, 1790, 1793, 1793, 1798, 1796, 1802, 1798, 1799, 1802, 1802, 1803, 1807, 1814, 1808, 1809, 1808, 1815, 1810, 1805, 1815, 1810, 1819, 1814, 1824, 1805, 1827, 1816, 1815, 1809, 1814, 1805, 1807, 1808, 1802, 1801, 1807, 1808, 1812, 1813, 1812, 1807, 1813, 1811, 1809, 1810, 1815, 1811, 1821, 1817, 1813, 1819, 1818, 1820, 1822, 1825, 1818, 1812, 1814, 1815, 1812, 1798, 1809, 1810, 1817, 1798, 1809, 1811, 1811, 1810, 1815, 1810, 1803, 1809, 1810, 1811, 1805, 1802, 1817, 1815, 1810, 1815, 1832, 1790, 1795, 1797, 1799, 1791, 1792, 1780, 1784, 1796, 1808, 1804, 1812, 1818, 1814, 1805, 1804, 1815, 1815, 1813, 1809, 1817, 1817, 1811, 1804, 1815, 1818, 1805, 1817, 1811, 1811, 1810, 1817, 1805, 1806, 1807, 1809, 1810, 1809, 1814, 1813, 1815, 1815, 1816, 1811, 1816, 1810, 1808, 1803, 1808, 1804, 1810, 1807, 1819, 1810, 1808, 1813, 1812, 1808, 1806, 1798, 1817, 1800, 1810, 1800, 1790, 1786, 1794, 1799, 1795, 1802, 1794, 1803, 1796, 1809, 1801, 1792, 1801, 1799, 1808, 1812, 1813, 1806, 1817, 1805, 1809, 1807, 1820, 1802, 1811, 1816, 1807, 1811, 1807, 1813, 1809, 1811, 1808, 1811, 1815, 1816, 1806, 1812, 1801, 1809, 1812, 1805, 1810, 1811, 1813, 1798, 1802, 1805, 1799, 1810, 1801, 1817, 1811, 1804, 1805, 1808, 1807, 1800, 1806, 1797, 1790, 1787, 1790, 1790, 1797, 1800, 1789, 1798, 1799, 1812, 1805, 1801, 1809, 1804, 1800, 1804, 1804, 1811, 1813, 1811, 1814, 1818, 1807, 1802, 1810, 1814, 1806, 1821, 1806, 1812, 1810, 1815, 1817, 1804, 1802, 1801, 1810, 1798, 1812, 1801, 1798, 1814, 1809, 1813, 1813, 1806, 1813, 1804, 1812, 1807, 1807, 1815, 1820, 1815, 1824, 1817, 1834, 1800, 1812, 1799, 1794, 1789, 1794, 1805, 1807, 1803, 1805, 1805, 1805, 1805, 1815, 1805, 1799, 1804, 1813, 1808, 1802, 1804, 1819, 1807, 1806, 1810, 1813, 1815, 1801, 1811, 1811, 1810, 1801, 1802, 1795, 1801, 1796, 1797, 1802, 1802, 1803, 1804, 1812, 1802, 1806, 1811, 1812, 1816, 1799, 1812, 1816, 1813, 1815, 1814, 1811, 1816, 1815, 1809, 1816, 1802, 1852, 1822, 1798],
