{
  "AcquisitionMatrixPE": 64,
  "AcquisitionNumber": 1,
  "AcquisitionTime": "11:41:59.787500",
  "BandwidthPerPixelPhaseEncode": 25.202,
  "BaseResolution": 64,
  "BodyPartExamined": "BRAIN",
  "ConsistencyInfo": "N4_VD13C_LATEST_20121124",
  "ConversionSoftware": "dcm2niix",
  "ConversionSoftwareVersion": "v1.0.20201102",
  "DerivedVendorReportedEchoSpacing": 0.00061999,
  "DeviceSerialNumber": "45758",
  "DwellTime": 4.3e-06,
  "EchoTime": 0.03,
  "EchoTrainLength": 64,
  "EffectiveEchoSpacing": 0.00061999,
  "FlipAngle": 90,
  "ImageOrientationPatientDICOM": [0.999788, -0.0128284, 0.01611, 0.0139606, 0.997289, -0.0722514],
  "ImageType": [
    "ORIGINAL",
    "PRIMARY",
    "M",
    "ND",
    "MOSAIC"
],
  "ImagingFrequency": 123.2,
  "InPlanePhaseEncodingDirectionDICOM": "ROW",
  "InstitutionAddress": "Street StreetNo,City /652E4B/,District,KR,ZIP",
  "InstitutionName": "DGMIF",
  "InstitutionalDepartmentName": "Department",
  "MRAcquisitionType": "2D",
  "MagneticFieldStrength": 3,
  "Manufacturer": "Siemens",
  "ManufacturersModelName": "Skyra",
  "Modality": "MR",
  "PartialFourier": 1,
  "PatientPosition": "HFS",
  "PercentPhaseFOV": 100,
  "PercentSampling": 100,
  "PhaseEncodingDirection": "i",
  "PhaseEncodingSteps": 64,
  "PhaseResolution": 1,
  "PixelBandwidth": 1815,
  "ProcedureStepDescription": "DGMIF^DGIST_Jeon",
  "ProtocolName": "EPI_DGIST_1",
  "PulseSequenceDetails": "%SiemensSeq%\\ep2d_bold",
  "ReceiveCoilActiveElements": "HC1-6",
  "ReceiveCoilName": "HeadNeck_64",
  "ReconMatrixPE": 64,
  "RepetitionTime": 2,
  "SAR": 0.105957,
  "ScanOptions": "FS",
  "ScanningSequence": "EP",
  "SequenceName": "*epfid2d1_64",
  "SequenceVariant": "SK",
  "SeriesDescription": "EPI_DGIST_1",
  "SeriesNumber": 2,
  "ShimSetting": [-9725, -13691, -8142, 319, -354, 59, -404, -111],
  "SliceThickness": 4,
  "SliceTiming": [0.99, 0, 1.0575, 0.0675, 1.1225, 0.1325, 1.19, 0.2, 1.255, 0.265, 1.32, 0.33, 1.3875, 0.3975, 1.4525, 0.4625, 1.52, 0.53, 1.585, 0.595, 1.65, 0.66, 1.7175, 0.7275, 1.7825, 0.7925, 1.85, 0.86, 1.915, 0.925],
  "SoftwareVersions": "syngo MR D13C",
  "SpacingBetweenSlices": 4.8,
  "StationName": "AWP45758",
  "TaskName": "asrt",
  "TotalReadoutTime": 0.0390594,
  "TxRefAmp": 309.465,
  "dcmmeta_affine": [
    [-2.999363660812378, 0.0418817400932312, 0.07266952842473984, 91.05501556396484],
    [0.03848528489470482, 2.991866111755371, -0.34781286120414734, -120.73131561279297],
    [0.04833010956645012, 0.21675428748130798, 4.786830425262451, -66.98600769042969],
    [0.0, 0.0, 0.0, 1.0]
],
  "dcmmeta_reorient_transform": [
    [0.0, -1.0, 0.0, 63.0],
    [1.0, 0.0, 0.0, 0.0],
    [0.0, 0.0, 1.0, 0.0],
    [0.0, 0.0, 0.0, 1.0]
],
  "dcmmeta_shape": [64, 64, 30, 514],
  "dcmmeta_slice_dim": 2,
  "dcmmeta_version": 0.6,
  "global": {
    "const": {
      "AcquisitionMatrix": [0, 64, 64, 0],
      "AngioFlag": "N",
      "BitsAllocated": 16,
      "BitsStored": 12,
      "BodyPartExamined": "BRAIN",
      "Columns": 384,
      "EchoNumbers": 1,
      "EchoTime": 30.0,
      "EchoTrainLength": 64,
      "FlipAngle": 90.0,
      "HighBit": 11,
      "ImageOrientationPatient": [0.9997879265982, -0.0128284278741, 0.01611003621189, 0.0139605804831, 0.9972887411738, -0.0722514285018],
      "ImagePositionPatient": [-580.29285047274, -540.29721022382, -26.382616482188],
      "ImageType": [
        "ORIGINAL",
        "PRIMARY",
        "M",
        "ND",
        "MOSAIC"
],
      "ImagedNucleus": "1H",
      "ImagingFrequency": 123.20016,
      "InPlanePhaseEncodingDirection": "ROW",
      "MRAcquisitionType": "2D",
      "MagneticFieldStrength": 3.0,
      "Manufacturer": "SIEMENS",
      "ManufacturerModelName": "Skyra",
      "Modality": "MR",
      "NumberOfAverages": 1.0,
      "NumberOfPhaseEncodingSteps": 64,
      "PercentPhaseFieldOfView": 100.0,
      "PercentSampling": 100.0,
      "PerformedProcedureStepStartTime": "113757.716000",
      "PhotometricInterpretation": "MONOCHROME2",
      "PixelBandwidth": 1815.0,
      "PixelRepresentation": 0,
      "PixelSpacing": [3.0, 3.0],
      "ProtocolName": "EPI_DGIST_1",
      "RepetitionTime": 2000.0,
      "Rows": 384,
      "SAR": 0.1059565645669,
      "SamplesPerPixel": 1,
      "ScanOptions": "FS",
      "ScanningSequence": "EP",
      "SequenceName": "*epfid2d1_64",
      "SequenceVariant": "SK",
      "SeriesDescription": "EPI_DGIST_1",
      "SeriesNumber": 2,
      "SeriesTime": "114258.866000",
      "SliceLocation": -56.675378513702,
      "SliceThickness": 4.0,
      "SmallestImagePixelValue": 0,
      "SoftwareVersions": "syngo MR D13C",
      "SpacingBetweenSlices": 4.7999999626531,
      "SpecificCharacterSet": "ISO_IR 100",
      "StudyID": "1",
      "StudyTime": "113757.658000",
      "TimeOfLastCalibration": ["123723.000000", "123723.000000"],
      "TransmitCoilName": "Body",
      "VariableFlipAngleFlag": "N",
      "WindowCenterWidthExplanation": "Algo1",
      "dBdt": 0.0},
    "slices": {}
  },
  "time": {
    "samples": {
      "AcquisitionNumber": [1, 2, 3, 4, 5, 6, 7, 8, 9, 10, 11, 12, 13, 14, 15, 16, 17, 18, 19, 20, 21, 22, 23, 24, 25, 26, 27, 28, 29, 30, 31, 32, 33, 34, 35, 36, 37, 38, 39, 40, 41, 42, 43, 44, 45, 46, 47, 48, 49, 50, 51, 52, 53, 54, 55, 56, 57, 58, 59, 60, 61, 62, 63, 64, 65, 66, 67, 68, 69, 70, 71, 72, 73, 74, 75, 76, 77, 78, 79, 80, 81, 82, 83, 84, 85, 86, 87, 88, 89, 90, 91, 92, 93, 94, 95, 96, 97, 98, 99, 100, 101, 102, 103, 104, 105, 106, 107, 108, 109, 110, 111, 112, 113, 114, 115, 116, 117, 118, 119, 120, 121, 122, 123, 124, 125, 126, 127, 128, 129, 130, 131, 132, 133, 134, 135, 136, 137, 138, 139, 140, 141, 142, 143, 144, 145, 146, 147, 148, 149, 150, 151, 152, 153, 154, 155, 156, 157, 158, 159, 160, 161, 162, 163, 164, 165, 166, 167, 168, 169, 170, 171, 172, 173, 174, 175, 176, 177, 178, 179, 180, 181, 182, 183, 184, 185, 186, 187, 188, 189, 190, 191, 192, 193, 194, 195, 196, 197, 198, 199, 200, 201, 202, 203, 204, 205, 206, 207, 208, 209, 210, 211, 212, 213, 214, 215, 216, 217, 218, 219, 220, 221, 222, 223, 224, 225, 226, 227, 228, 229, 230, 231, 232, 233, 234, 235, 236, 237, 238, 239, 240, 241, 242, 243, 244, 245, 246, 247, 248, 249, 250, 251, 252, 253, 254, 255, 256, 257, 258, 259, 260, 261, 262, 263, 264, 265, 266, 267, 268, 269, 270, 271, 272, 273, 274, 275, 276, 277, 278, 279, 280, 281, 282, 283, 284, 285, 286, 287, 288, 289, 290, 291, 292, 293, 294, 295, 296, 297, 298, 299, 300, 301, 302, 303, 304, 305, 306, 307, 308, 309, 310, 311, 312, 313, 314, 315, 316, 317, 318, 319, 320, 321, 322, 323, 324, 325, 326, 327, 328, 329, 330, 331, 332, 333, 334, 335, 336, 337, 338, 339, 340, 341, 342, 343, 344, 345, 346, 347, 348, 349, 350, 351, 352, 353, 354, 355, 356, 357, 358, 359, 360, 361, 362, 363, 364, 365, 366, 367, 368, 369, 370, 371, 372, 373, 374, 375, 376, 377, 378, 379, 380, 381, 382, 383, 384, 385, 386, 387, 388, 389, 390, 391, 392, 393, 394, 395, 396, 397, 398, 399, 400, 401, 402, 403, 404, 405, 406, 407, 408, 409, 410, 411, 412, 413, 414, 415, 416, 417, 418, 419, 420, 421, 422, 423, 424, 425, 426, 427, 428, 429, 430, 431, 432, 433, 434, 435, 436, 437, 438, 439, 440, 441, 442, 443, 444, 445, 446, 447, 448, 449, 450, 451, 452, 453, 454, 455, 456, 457, 458, 459, 460, 461, 462, 463, 464, 465, 466, 467, 468, 469, 470, 471, 472, 473, 474, 475, 476, 477, 478, 479, 480, 481, 482, 483, 484, 485, 486, 487, 488, 489, 490, 491, 492, 493, 494, 495, 496, 497, 498, 499, 500, 501, 502, 503, 504, 505, 506, 507, 508, 509, 510, 511, 512, 513, 514],
      "AcquisitionTime": ["114159.787500", "114201.787500", "114203.787500", "114205.787500", "114207.787500", "114209.787500", "114211.787500", "114213.787500", "114215.787500", "114217.787500", "114219.787500", "114221.787500", "114223.787500", "114225.787500", "114227.787500", "114229.787500", "114231.787500", "114233.787500", "114235.787500", "114237.787500", "114239.787500", "114241.787500", "114243.787500", "114245.787500", "114247.787500", "114249.787500", "114251.787500", "114253.787500", "114255.787500", "114257.787500", "114259.790000", "114301.790000", "114303.790000", "114305.790000", "114307.790000", "114309.790000", "114311.790000", "114313.790000", "114315.790000", "114317.790000", "114319.790000", "114321.790000", "114323.790000", "114325.790000", "114327.790000", "114329.790000", "114331.790000", "114333.790000", "114335.790000", "114337.790000", "114339.790000", "114341.790000", "114343.790000", "114345.790000", "114347.790000", "114349.790000", "114351.790000", "114353.790000", "114355.790000", "114357.790000", "114359.790000", "114401.790000", "114403.790000", "114405.790000", "114407.790000", "114409.790000", "114411.790000", "114413.790000", "114415.790000", "114417.790000", "114419.790000", "114421.790000", "114423.790000", "114425.790000", "114427.790000", "114429.790000", "114431.790000", "114433.790000", "114435.790000", "114437.790000", "114439.790000", "114441.790000", "114443.790000", "114445.790000", "114447.790000", "114449.790000", "114451.790000", "114453.790000", "114455.790000", "114457.790000", "114459.790000", "114501.790000", "114503.790000", "114505.790000", "114507.790000", "114509.790000", "114511.790000", "114513.790000", "114515.790000", "114517.790000", "114519.790000", "114521.790000", "114523.790000", "114525.790000", "114527.790000", "114529.790000", "114531.790000", "114533.790000", "114535.790000", "114537.790000", "114539.790000", "114541.790000", "114543.790000", "114545.790000", "114547.790000", "114549.790000", "114551.790000", "114553.790000", "114555.790000", "114557.790000", "114559.790000", "114601.790000", "114603.790000", "114605.790000", "114607.790000", "114609.790000", "114611.790000", "114613.790000", "114615.790000", "114617.790000", "114619.790000", "114621.790000", "114623.790000", "114625.790000", "114627.790000", "114629.790000", "114631.790000", "114633.790000", "114635.790000", "114637.790000", "114639.790000", "114641.790000", "114643.790000", "114645.790000", "114647.790000", "114649.790000", "114651.790000", "114653.790000", "114655.790000", "114657.790000", "114659.790000", "114701.790000", "114703.790000", "114705.790000", "114707.790000", "114709.790000", "114711.790000", "114713.790000", "114715.790000", "114717.790000", "114719.790000", "114721.790000", "114723.790000", "114725.790000", "114727.790000", "114729.790000", "114731.790000", "114733.790000", "114735.790000", "114737.790000", "114739.790000", "114741.790000", "114743.790000", "114745.790000", "114747.790000", "114749.790000", "114751.790000", "114753.790000", "114755.790000", "114757.790000", "114759.790000", "114801.790000", "114803.790000", "114805.790000", "114807.790000", "114809.790000", "114811.790000", "114813.790000", "114815.790000", "114817.790000", "114819.790000", "114821.790000", "114823.790000", "114825.790000", "114827.790000", "114829.790000", "114831.790000", "114833.790000", "114835.790000", "114837.790000", "114839.790000", "114841.790000", "114843.790000", "114845.790000", "114847.790000", "114849.790000", "114851.790000", "114853.790000", "114855.790000", "114857.790000", "114859.790000", "114901.790000", "114903.790000", "114905.790000", "114907.790000", "114909.790000", "114911.790000", "114913.790000", "114915.790000", "114917.790000", "114919.790000", "114921.790000", "114923.790000", "114925.790000", "114927.790000", "114929.790000", "114931.790000", "114933.790000", "114935.790000", "114937.790000", "114939.790000", "114941.790000", "114943.790000", "114945.790000", "114947.790000", "114949.790000", "114951.790000", "114953.790000", "114955.790000", "114957.790000", "114959.790000", "115001.790000", "115003.790000", "115005.790000", "115007.790000", "115009.790000", "115011.790000", "115013.790000", "115015.790000", "115017.790000", "115019.790000", "115021.790000", "115023.790000", "115025.790000", "115027.790000", "115029.790000", "115031.790000", "115033.790000", "115035.790000", "115037.790000", "115039.790000", "115041.790000", "115043.790000", "115045.790000", "115047.790000", "115049.790000", "115051.790000", "115053.790000", "115055.790000", "115057.790000", "115059.790000", "115101.790000", "115103.790000", "115105.790000", "115107.790000", "115109.790000", "115111.790000", "115113.790000", "115115.790000", "115117.790000", "115119.792500", "115121.792500", "115123.792500", "115125.792500", "115127.792500", "115129.792500", "115131.792500", "115133.792500", "115135.792500", "115137.792500", "115139.792500", "115141.792500", "115143.792500", "115145.792500", "115147.792500", "115149.792500", "115151.792500", "115153.792500", "115155.792500", "115157.792500", "115159.792500", "115201.792500", "115203.792500", "115205.792500", "115207.792500", "115209.792500", "115211.792500", "115213.792500", "115215.792500", "115217.792500", "115219.792500", "115221.792500", "115223.792500", "115225.792500", "115227.792500", "115229.792500", "115231.792500", "115233.792500", "115235.792500", "115237.792500", "115239.792500", "115241.792500", "115243.792500", "115245.792500", "115247.792500", "115249.792500", "115251.792500", "115253.792500", "115255.792500", "115257.792500", "115259.792500", "115301.792500", "115303.792500", "115305.792500", "115307.792500", "115309.792500", "115311.792500", "115313.792500", "115315.792500", "115317.792500", "115319.792500", "115321.792500", "115323.792500", "115325.792500", "115327.792500", "115329.792500", "115331.792500", "115333.792500", "115335.792500", "115337.792500", "115339.792500", "115341.792500", "115343.792500", "115345.792500", "115347.792500", "115349.792500", "115351.792500", "115353.792500", "115355.792500", "115357.792500", "115359.792500", "115401.792500", "115403.792500", "115405.792500", "115407.792500", "115409.792500", "115411.792500", "115413.792500", "115415.792500", "115417.792500", "115419.792500", "115421.792500", "115423.792500", "115425.792500", "115427.792500", "115429.792500", "115431.792500", "115433.792500", "115435.792500", "115437.792500", "115439.792500", "115441.792500", "115443.792500", "115445.792500", "115447.792500", "115449.792500", "115451.792500", "115453.792500", "115455.792500", "115457.792500", "115459.792500", "115501.792500", "115503.792500", "115505.792500", "115507.792500", "115509.792500", "115511.792500", "115513.792500", "115515.792500", "115517.792500", "115519.792500", "115521.792500", "115523.792500", "115525.792500", "115527.792500", "115529.792500", "115531.792500", "115533.792500", "115535.792500", "115537.792500", "115539.792500", "115541.792500", "115543.792500", "115545.792500", "115547.792500", "115549.792500", "115551.792500", "115553.792500", "115555.792500", "115557.792500", "115559.792500", "115601.792500", "115603.792500", "115605.792500", "115607.792500", "115609.792500", "115611.792500", "115613.792500", "115615.792500", "115617.792500", "115619.792500", "115621.792500", "115623.792500", "115625.792500", "115627.792500", "115629.792500", "115631.792500", "115633.792500", "115635.792500", "115637.792500", "115639.792500", "115641.792500", "115643.792500", "115645.792500", "115647.792500", "115649.792500", "115651.792500", "115653.792500", "115655.792500", "115657.792500", "115659.792500", "115701.792500", "115703.792500", "115705.792500", "115707.792500", "115709.792500", "115711.792500", "115713.792500", "115715.792500", "115717.792500", "115719.792500", "115721.792500", "115723.792500", "115725.792500", "115727.792500", "115729.792500", "115731.792500", "115733.792500", "115735.792500", "115737.792500", "115739.792500", "115741.792500", "115743.792500", "115745.792500", "115747.792500", "115749.792500", "115751.792500", "115753.792500", "115755.792500", "115757.792500", "115759.792500", "115801.792500", "115803.792500", "115805.792500", "115807.792500", "115809.792500", "115811.792500", "115813.792500", "115815.792500", "115817.792500", "115819.792500", "115821.792500", "115823.792500", "115825.792500", "115827.792500", "115829.792500", "115831.792500", "115833.792500", "115835.792500", "115837.792500", "115839.792500", "115841.792500", "115843.792500", "115845.792500", "115847.792500", "115849.792500", "115851.792500", "115853.792500", "115855.792500", "115857.792500", "115859.792500", "115901.792500", "115903.792500", "115905.792500"],
      "ContentTime": ["114258.869000", "114258.871000", "114258.874000", "114258.875000", "114258.877000", "114258.879000", "114258.881000", "114258.883000", "114258.885000", "114258.887000", "114258.889000", "114258.891000", "114258.893000", "114258.898000", "114258.900000", "114258.905000", "114258.906000", "114258.908000", "114258.911000", "114258.912000", "114258.914000", "114258.916000", "114258.919000", "114258.921000", "114258.923000", "114258.924000", "114258.926000", "114258.935000", "114258.937000", "114338.864000", "114338.866000", "114338.868000", "114338.870000", "114338.872000", "114338.874000", "114338.876000", "114338.878000", "114338.880000", "114338.888000", "114338.890000", "114338.892000", "114338.894000", "114338.896000", "114338.898000", "114338.900000", "114338.902000", "114338.903000", "114338.905000", "114338.907000", "114418.864000", "114418.866000", "114418.868000", "114418.870000", "114418.872000", "114418.874000", "114418.876000", "114418.878000", "114418.880000", "114418.882000", "114418.884000", "114418.886000", "114418.888000", "114418.890000", "114418.892000", "114418.894000", "114418.896000", "114418.898000", "114418.900000", "114418.902000", "114458.863000", "114458.865000", "114458.867000", "114458.869000", "114458.871000", "114458.873000", "114458.875000", "114458.877000", "114458.879000", "114458.881000", "114458.883000", "114458.885000", "114458.887000", "114458.889000", "114458.891000", "114458.893000", "114458.895000", "114458.897000", "114458.899000", "114458.901000", "114538.864000", "114538.866000", "114538.868000", "114538.870000", "114538.872000", "114538.874000", "114538.876000", "114538.878000", "114538.886000", "114538.888000", "114538.890000", "114538.892000", "114538.894000", "114538.896000", "114538.898000", "114538.900000", "114538.902000", "114538.904000", "114538.906000", "114538.908000", "114618.864000", "114618.866000", "114618.868000", "114618.870000", "114618.872000", "114618.874000", "114618.876000", "114618.878000", "114618.880000", "114618.882000", "114618.884000", "114618.886000", "114618.888000", "114618.890000", "114618.892000", "114618.894000", "114618.896000", "114618.898000", "114618.900000", "114618.902000", "114658.863000", "114658.865000", "114658.867000", "114658.869000", "114658.871000", "114658.873000", "114658.875000", "114658.877000", "114658.879000", "114658.881000", "114658.883000", "114658.885000", "114658.887000", "114658.889000", "114658.891000", "114658.893000", "114658.895000", "114658.897000", "114658.899000", "114658.901000", "114738.864000", "114738.866000", "114738.868000", "114738.870000", "114738.872000", "114738.874000", "114738.876000", "114738.878000", "114738.880000", "114738.882000", "114738.884000", "114738.886000", "114738.888000", "114738.890000", "114738.892000", "114738.894000", "114738.896000", "114738.898000", "114738.900000", "114738.902000", "114818.864000", "114818.866000", "114818.868000", "114818.870000", "114818.872000", "114818.874000", "114818.876000", "114818.878000", "114818.880000", "114818.882000", "114818.884000", "114818.886000", "114818.888000", "114818.890000", "114818.892000", "114818.894000", "114818.896000", "114818.898000", "114818.900000", "114818.902000", "114858.864000", "114858.866000", "114858.881000", "114858.883000", "114858.885000", "114858.887000", "114858.889000", "114858.891000", "114858.893000", "114858.895000", "114858.897000", "114858.899000", "114858.901000", "114858.903000", "114858.905000", "114858.907000", "114858.909000", "114858.911000", "114858.913000", "114858.915000", "114938.864000", "114938.866000", "114938.868000", "114938.870000", "114938.872000", "114938.874000", "114938.876000", "114938.878000", "114938.880000", "114938.882000", "114938.884000", "114938.886000", "114938.888000", "114938.890000", "114938.892000", "114938.894000", "114938.896000", "114938.898000", "114938.900000", "114938.902000", "115018.864000", "115018.866000", "115018.868000", "115018.870000", "115018.872000", "115018.874000", "115018.876000", "115018.878000", "115018.880000", "115018.882000", "115018.884000", "115018.886000", "115018.888000", "115018.890000", "115018.892000", "115018.894000", "115018.896000", "115018.898000", "115018.900000", "115018.902000", "115058.864000", "115058.866000", "115058.868000", "115058.870000", "115058.873000", "115058.874000", "115058.877000", "115058.878000", "115058.881000", "115058.883000", "115058.884000", "115058.886000", "115058.888000", "115058.890000", "115058.892000", "115058.894000", "115058.896000", "115058.898000", "115058.900000", "115058.902000", "115138.863000", "115138.865000", "115138.867000", "115138.869000", "115138.871000", "115138.873000", "115138.875000", "115138.877000", "115138.879000", "115138.881000", "115138.883000", "115138.885000", "115138.887000", "115138.889000", "115138.891000", "115138.893000", "115138.895000", "115138.897000", "115138.899000", "115138.901000", "115218.864000", "115218.866000", "115218.868000", "115218.870000", "115218.872000", "115218.874000", "115218.876000", "115218.878000", "115218.880000", "115218.882000", "115218.884000", "115218.886000", "115218.888000", "115218.890000", "115218.892000", "115218.894000", "115218.896000", "115218.898000", "115218.900000", "115218.902000", "115258.864000", "115258.866000", "115258.868000", "115258.870000", "115258.873000", "115258.874000", "115258.876000", "115258.878000", "115258.880000", "115258.882000", "115258.884000", "115258.886000", "115258.889000", "115258.890000", "115258.892000", "115258.894000", "115258.896000", "115258.898000", "115258.900000", "115258.902000", "115338.864000", "115338.866000", "115338.868000", "115338.870000", "115338.872000", "115338.874000", "115338.876000", "115338.878000", "115338.880000", "115338.882000", "115338.884000", "115338.886000", "115338.888000", "115338.890000", "115338.892000", "115338.894000", "115338.896000", "115338.898000", "115338.900000", "115338.902000", "115418.864000", "115418.866000", "115418.868000", "115418.870000", "115418.872000", "115418.874000", "115418.876000", "115418.878000", "115418.880000", "115418.882000", "115418.884000", "115418.886000", "115418.888000", "115418.890000", "115418.892000", "115418.894000", "115418.896000", "115418.898000", "115418.900000", "115418.902000", "115458.864000", "115458.866000", "115458.868000", "115458.870000", "115458.872000", "115458.874000", "115458.876000", "115458.878000", "115458.880000", "115458.882000", "115458.884000", "115458.886000", "115458.888000", "115458.890000", "115458.892000", "115458.894000", "115458.896000", "115458.898000", "115458.900000", "115458.902000", "115538.864000", "115538.866000", "115538.868000", "115538.870000", "115538.872000", "115538.874000", "115538.876000", "115538.878000", "115538.880000", "115538.882000", "115538.884000", "115538.886000", "115538.888000", "115538.890000", "115538.892000", "115538.894000", "115538.896000", "115538.898000", "115538.900000", "115538.902000", "115618.863000", "115618.865000", "115618.867000", "115618.869000", "115618.871000", "115618.873000", "115618.875000", "115618.877000", "115618.879000", "115618.881000", "115618.883000", "115618.885000", "115618.887000", "115618.889000", "115618.891000", "115618.893000", "115618.895000", "115618.897000", "115618.899000", "115618.901000", "115658.864000", "115658.866000", "115658.868000", "115658.870000", "115658.872000", "115658.874000", "115658.876000", "115658.878000", "115658.880000", "115658.882000", "115658.884000", "115658.886000", "115658.888000", "115658.890000", "115658.892000", "115658.894000", "115658.896000", "115658.916000", "115658.918000", "115658.920000", "115738.864000", "115738.866000", "115738.868000", "115738.870000", "115738.872000", "115738.874000", "115738.876000", "115738.878000", "115738.880000", "115738.882000", "115738.884000", "115738.886000", "115738.888000", "115738.890000", "115738.892000", "115738.894000", "115738.896000", "115738.898000", "115738.900000", "115738.902000", "115818.864000", "115818.866000", "115818.868000", "115818.870000", "115818.872000", "115818.874000", "115818.876000", "115818.878000", "115818.880000", "115818.882000", "115818.884000", "115818.886000", "115818.888000", "115818.890000", "115818.892000", "115818.894000", "115818.896000", "115818.898000", "115818.900000", "115818.902000", "115858.864000", "115858.866000", "115858.868000", "115858.870000", "115858.872000", "115858.874000", "115858.876000", "115858.878000", "115858.880000", "115858.882000", "115858.884000", "115858.886000", "115858.888000", "115858.890000", "115858.892000", "115858.894000", "115858.896000", "115858.898000", "115858.900000", "115858.902000", "115907.167000", "115907.169000", "115907.172000", "115907.174000", "115907.176000"],
