{
  "AcquisitionMatrixPE": 64,
  "AcquisitionNumber": 1,
  "AcquisitionTime": "12:50:16.095000",
  "BandwidthPerPixelPhaseEncode": 25.202,
  "BaseResolution": 64,
  "BodyPartExamined": "BRAIN",
  "ConsistencyInfo": "N4_VD13C_LATEST_20121124",
  "ConversionSoftware": "dcm2niix",
  "ConversionSoftwareVersion": "v1.0.20201102",
  "DerivedVendorReportedEchoSpacing": 0.00061999,
  "DeviceSerialNumber": "45758",
  "DwellTime": 4.3e-06,
  "EchoTime": 0.03,
  "EchoTrainLength": 64,
  "EffectiveEchoSpacing": 0.00061999,
  "FlipAngle": 90,
  "ImageOrientationPatientDICOM": [0.999971, 0.00521055, -0.0055545, -0.00523588, 0.999976, -0.0045556],
  "ImageType": [
    "ORIGINAL",
    "PRIMARY",
    "M",
    "ND",
    "MOSAIC"
],
  "ImagingFrequency": 123.2,
  "InPlanePhaseEncodingDirectionDICOM": "ROW",
  "InstitutionAddress": "Street StreetNo,City /652E4B/,District,KR,ZIP",
  "InstitutionName": "DGMIF",
  "InstitutionalDepartmentName": "Department",
  "MRAcquisitionType": "2D",
  "MagneticFieldStrength": 3,
  "Manufacturer": "Siemens",
  "ManufacturersModelName": "Skyra",
  "Modality": "MR",
  "PartialFourier": 1,
  "PatientPosition": "HFS",
  "PercentPhaseFOV": 100,
  "PercentSampling": 100,
  "PhaseEncodingDirection": "i",
  "PhaseEncodingSteps": 64,
  "PhaseResolution": 1,
  "PixelBandwidth": 1815,
  "ProcedureStepDescription": "DGMIF^DGIST_Jeon",
  "ProtocolName": "EPI_DGIST_1",
  "PulseSequenceDetails": "%SiemensSeq%\\ep2d_bold",
  "ReceiveCoilActiveElements": "HC1-6",
  "ReceiveCoilName": "HeadNeck_64",
  "ReconMatrixPE": 64,
  "RepetitionTime": 2,
  "SAR": 0.107449,
  "ScanOptions": "FS",
  "ScanningSequence": "EP",
  "SequenceName": "*epfid2d1_64",
  "SequenceVariant": "SK",
  "SeriesDescription": "EPI_DGIST_1",
  "SeriesNumber": 2,
  "ShimSetting": [-9758, -13630, -8286, 404, -636, -84, -194, 29],
  "SliceThickness": 4,
  "SliceTiming": [0.99, 0, 1.055, 0.065, 1.1225, 0.1325, 1.1875, 0.1975, 1.2525, 0.265, 1.32, 0.33, 1.385, 0.395, 1.4525, 0.4625, 1.5175, 0.5275, 1.5825, 0.595, 1.65, 0.66, 1.715, 0.725, 1.7825, 0.7925, 1.8475, 0.8575, 1.9125, 0.9225],
  "SoftwareVersions": "syngo MR D13C",
  "SpacingBetweenSlices": 4.8,
  "StationName": "AWP45758",
  "TaskName": "asrt",
  "TotalReadoutTime": 0.0390594,
  "TxRefAmp": 312.122,
  "dcmmeta_affine": [
    [-2.999912977218628, -0.015707651153206825, -0.026547005400061607, 95.72084045410156],
    [-0.0156316589564085, 2.9999277591705322, -0.02200585976243019, -124.02738952636719],
    [-0.01666349172592163, 0.013666811399161816, 4.7998762130737305, -81.78947448730469],
    [0.0, 0.0, 0.0, 1.0]
],
  "dcmmeta_reorient_transform": [
    [0.0, -1.0, 0.0, 63.0],
    [1.0, 0.0, 0.0, 0.0],
    [0.0, 0.0, 1.0, 0.0],
    [0.0, 0.0, 0.0, 1.0]
],
  "dcmmeta_shape": [64, 64, 30, 514],
  "dcmmeta_slice_dim": 2,
  "dcmmeta_version": 0.6,
  "global": {
    "const": {
      "AcquisitionMatrix": [0, 64, 64, 0],
      "AngioFlag": "N",
      "BitsAllocated": 16,
      "BitsStored": 12,
      "BodyPartExamined": "BRAIN",
      "Columns": 384,
      "EchoNumbers": 1,
      "EchoTime": 30.0,
      "EchoTrainLength": 64,
      "FlipAngle": 90.0,
      "HighBit": 11,
      "ImageOrientationPatient": [0.99997099842852, 0.00521055317235, -0.0055544970524, -0.0052358836162, 0.99997591570869, -0.0045556037273],
      "ImagePositionPatient": [-572.20411003703, -547.45756179142, -76.075614543684],
      "ImageType": [
        "ORIGINAL",
        "PRIMARY",
        "M",
        "ND",
        "MOSAIC"
],
      "ImagedNucleus": "1H",
      "ImagingFrequency": 123.200248,
      "InPlanePhaseEncodingDirection": "ROW",
      "MRAcquisitionType": "2D",
      "MagneticFieldStrength": 3.0,
      "Manufacturer": "SIEMENS",
      "ManufacturerModelName": "Skyra",
      "Modality": "MR",
      "NumberOfAverages": 1.0,
      "NumberOfPhaseEncodingSteps": 64,
      "PercentPhaseFieldOfView": 100.0,
      "PercentSampling": 100.0,
      "PerformedProcedureStepStartTime": "124623.646000",
      "PhotometricInterpretation": "MONOCHROME2",
      "PixelBandwidth": 1815.0,
      "PixelRepresentation": 0,
      "PixelSpacing": [3.0, 3.0],
      "ProtocolName": "EPI_DGIST_1",
      "RepetitionTime": 2000.0,
      "Rows": 384,
      "SAR": 0.10744930118588,
      "SamplesPerPixel": 1,
      "ScanOptions": "FS",
      "ScanningSequence": "EP",
      "SequenceName": "*epfid2d1_64",
      "SequenceVariant": "SK",
      "SeriesDescription": "EPI_DGIST_1",
      "SeriesNumber": 2,
      "SeriesTime": "125032.544000",
      "SliceLocation": -81.748147426971,
      "SliceThickness": 4.0,
      "SmallestImagePixelValue": 0,
      "SoftwareVersions": "syngo MR D13C",
      "SpacingBetweenSlices": 4.7999999703797,
      "SpecificCharacterSet": "ISO_IR 100",
      "StudyID": "1",
      "StudyTime": "124623.538000",
      "TimeOfLastCalibration": ["123723.000000", "123723.000000"],
      "TransmitCoilName": "Body",
      "VariableFlipAngleFlag": "N",
      "WindowCenterWidthExplanation": "Algo1",
      "dBdt": 0.0},
    "slices": {}
  },
  "time": {
    "samples": {
      "AcquisitionNumber": [1, 2, 3, 4, 5, 6, 7, 8, 9, 10, 11, 12, 13, 14, 15, 16, 17, 18, 19, 20, 21, 22, 23, 24, 25, 26, 27, 28, 29, 30, 31, 32, 33, 34, 35, 36, 37, 38, 39, 40, 41, 42, 43, 44, 45, 46, 47, 48, 49, 50, 51, 52, 53, 54, 55, 56, 57, 58, 59, 60, 61, 62, 63, 64, 65, 66, 67, 68, 69, 70, 71, 72, 73, 74, 75, 76, 77, 78, 79, 80, 81, 82, 83, 84, 85, 86, 87, 88, 89, 90, 91, 92, 93, 94, 95, 96, 97, 98, 99, 100, 101, 102, 103, 104, 105, 106, 107, 108, 109, 110, 111, 112, 113, 114, 115, 116, 117, 118, 119, 120, 121, 122, 123, 124, 125, 126, 127, 128, 129, 130, 131, 132, 133, 134, 135, 136, 137, 138, 139, 140, 141, 142, 143, 144, 145, 146, 147, 148, 149, 150, 151, 152, 153, 154, 155, 156, 157, 158, 159, 160, 161, 162, 163, 164, 165, 166, 167, 168, 169, 170, 171, 172, 173, 174, 175, 176, 177, 178, 179, 180, 181, 182, 183, 184, 185, 186, 187, 188, 189, 190, 191, 192, 193, 194, 195, 196, 197, 198, 199, 200, 201, 202, 203, 204, 205, 206, 207, 208, 209, 210, 211, 212, 213, 214, 215, 216, 217, 218, 219, 220, 221, 222, 223, 224, 225, 226, 227, 228, 229, 230, 231, 232, 233, 234, 235, 236, 237, 238, 239, 240, 241, 242, 243, 244, 245, 246, 247, 248, 249, 250, 251, 252, 253, 254, 255, 256, 257, 258, 259, 260, 261, 262, 263, 264, 265, 266, 267, 268, 269, 270, 271, 272, 273, 274, 275, 276, 277, 278, 279, 280, 281, 282, 283, 284, 285, 286, 287, 288, 289, 290, 291, 292, 293, 294, 295, 296, 297, 298, 299, 300, 301, 302, 303, 304, 305, 306, 307, 308, 309, 310, 311, 312, 313, 314, 315, 316, 317, 318, 319, 320, 321, 322, 323, 324, 325, 326, 327, 328, 329, 330, 331, 332, 333, 334, 335, 336, 337, 338, 339, 340, 341, 342, 343, 344, 345, 346, 347, 348, 349, 350, 351, 352, 353, 354, 355, 356, 357, 358, 359, 360, 361, 362, 363, 364, 365, 366, 367, 368, 369, 370, 371, 372, 373, 374, 375, 376, 377, 378, 379, 380, 381, 382, 383, 384, 385, 386, 387, 388, 389, 390, 391, 392, 393, 394, 395, 396, 397, 398, 399, 400, 401, 402, 403, 404, 405, 406, 407, 408, 409, 410, 411, 412, 413, 414, 415, 416, 417, 418, 419, 420, 421, 422, 423, 424, 425, 426, 427, 428, 429, 430, 431, 432, 433, 434, 435, 436, 437, 438, 439, 440, 441, 442, 443, 444, 445, 446, 447, 448, 449, 450, 451, 452, 453, 454, 455, 456, 457, 458, 459, 460, 461, 462, 463, 464, 465, 466, 467, 468, 469, 470, 471, 472, 473, 474, 475, 476, 477, 478, 479, 480, 481, 482, 483, 484, 485, 486, 487, 488, 489, 490, 491, 492, 493, 494, 495, 496, 497, 498, 499, 500, 501, 502, 503, 504, 505, 506, 507, 508, 509, 510, 511, 512, 513, 514],
      "AcquisitionTime": ["125016.095000", "125018.095000", "125020.095000", "125022.095000", "125024.095000", "125026.095000", "125028.095000", "125030.095000", "125032.095000", "125034.095000", "125036.095000", "125038.095000", "125040.095000", "125042.095000", "125044.095000", "125046.095000", "125048.095000", "125050.095000", "125052.095000", "125054.095000", "125056.095000", "125058.095000", "125100.095000", "125102.095000", "125104.095000", "125106.095000", "125108.095000", "125110.095000", "125112.095000", "125114.095000", "125116.095000", "125118.095000", "125120.095000", "125122.095000", "125124.095000", "125126.095000", "125128.095000", "125130.095000", "125132.095000", "125134.095000", "125136.095000", "125138.095000", "125140.095000", "125142.095000", "125144.095000", "125146.095000", "125148.095000", "125150.095000", "125152.095000", "125154.095000", "125156.095000", "125158.095000", "125200.095000", "125202.095000", "125204.095000", "125206.095000", "125208.095000", "125210.095000", "125212.095000", "125214.095000", "125216.095000", "125218.095000", "125220.095000", "125222.095000", "125224.095000", "125226.095000", "125228.095000", "125230.095000", "125232.095000", "125234.095000", "125236.095000", "125238.095000", "125240.095000", "125242.095000", "125244.095000", "125246.095000", "125248.095000", "125250.095000", "125252.095000", "125254.095000", "125256.095000", "125258.095000", "125300.095000", "125302.095000", "125304.095000", "125306.095000", "125308.095000", "125310.095000", "125312.095000", "125314.095000", "125316.095000", "125318.095000", "125320.095000", "125322.095000", "125324.095000", "125326.095000", "125328.095000", "125330.095000", "125332.095000", "125334.095000", "125336.095000", "125338.095000", "125340.095000", "125342.095000", "125344.095000", "125346.095000", "125348.095000", "125350.095000", "125352.095000", "125354.095000", "125356.095000", "125358.095000", "125400.095000", "125402.095000", "125404.095000", "125406.095000", "125408.095000", "125410.095000", "125412.095000", "125414.095000", "125416.095000", "125418.095000", "125420.095000", "125422.095000", "125424.095000", "125426.095000", "125428.095000", "125430.095000", "125432.095000", "125434.095000", "125436.095000", "125438.095000", "125440.095000", "125442.095000", "125444.095000", "125446.095000", "125448.095000", "125450.095000", "125452.095000", "125454.095000", "125456.095000", "125458.095000", "125500.095000", "125502.095000", "125504.095000", "125506.095000", "125508.095000", "125510.095000", "125512.095000", "125514.095000", "125516.095000", "125518.095000", "125520.095000", "125522.095000", "125524.097500", "125526.097500", "125528.097500", "125530.097500", "125532.097500", "125534.097500", "125536.097500", "125538.097500", "125540.097500", "125542.097500", "125544.097500", "125546.097500", "125548.097500", "125550.097500", "125552.097500", "125554.097500", "125556.097500", "125558.097500", "125600.097500", "125602.097500", "125604.097500", "125606.097500", "125608.097500", "125610.097500", "125612.097500", "125614.097500", "125616.097500", "125618.097500", "125620.097500", "125622.097500", "125624.097500", "125626.097500", "125628.097500", "125630.097500", "125632.097500", "125634.097500", "125636.097500", "125638.097500", "125640.097500", "125642.097500", "125644.097500", "125646.097500", "125648.097500", "125650.097500", "125652.097500", "125654.097500", "125656.097500", "125658.097500", "125700.097500", "125702.097500", "125704.097500", "125706.097500", "125708.097500", "125710.097500", "125712.097500", "125714.097500", "125716.097500", "125718.097500", "125720.097500", "125722.097500", "125724.097500", "125726.097500", "125728.097500", "125730.097500", "125732.097500", "125734.097500", "125736.097500", "125738.097500", "125740.097500", "125742.097500", "125744.097500", "125746.097500", "125748.097500", "125750.097500", "125752.097500", "125754.097500", "125756.097500", "125758.097500", "125800.097500", "125802.097500", "125804.097500", "125806.097500", "125808.097500", "125810.097500", "125812.097500", "125814.097500", "125816.097500", "125818.097500", "125820.097500", "125822.097500", "125824.097500", "125826.097500", "125828.097500", "125830.097500", "125832.097500", "125834.097500", "125836.097500", "125838.097500", "125840.097500", "125842.097500", "125844.097500", "125846.097500", "125848.097500", "125850.097500", "125852.097500", "125854.097500", "125856.097500", "125858.097500", "125900.097500", "125902.097500", "125904.097500", "125906.097500", "125908.097500", "125910.097500", "125912.097500", "125914.097500", "125916.097500", "125918.097500", "125920.097500", "125922.097500", "125924.097500", "125926.097500", "125928.097500", "125930.097500", "125932.097500", "125934.097500", "125936.097500", "125938.097500", "125940.097500", "125942.097500", "125944.097500", "125946.097500", "125948.097500", "125950.097500", "125952.097500", "125954.097500", "125956.097500", "125958.097500", "130000.097500", "130002.097500", "130004.097500", "130006.097500", "130008.097500", "130010.097500", "130012.097500", "130014.097500", "130016.097500", "130018.097500", "130020.097500", "130022.097500", "130024.097500", "130026.097500", "130028.097500", "130030.097500", "130032.097500", "130034.097500", "130036.097500", "130038.097500", "130040.097500", "130042.097500", "130044.097500", "130046.097500", "130048.097500", "130050.097500", "130052.097500", "130054.097500", "130056.097500", "130058.097500", "130100.097500", "130102.097500", "130104.097500", "130106.097500", "130108.097500", "130110.097500", "130112.097500", "130114.097500", "130116.097500", "130118.097500", "130120.097500", "130122.097500", "130124.097500", "130126.097500", "130128.097500", "130130.097500", "130132.097500", "130134.097500", "130136.097500", "130138.097500", "130140.097500", "130142.097500", "130144.097500", "130146.097500", "130148.097500", "130150.097500", "130152.097500", "130154.097500", "130156.097500", "130158.097500", "130200.097500", "130202.097500", "130204.097500", "130206.097500", "130208.097500", "130210.097500", "130212.097500", "130214.097500", "130216.097500", "130218.097500", "130220.097500", "130222.097500", "130224.097500", "130226.097500", "130228.097500", "130230.097500", "130232.097500", "130234.097500", "130236.097500", "130238.097500", "130240.097500", "130242.097500", "130244.097500", "130246.097500", "130248.097500", "130250.097500", "130252.097500", "130254.097500", "130256.097500", "130258.097500", "130300.097500", "130302.097500", "130304.097500", "130306.097500", "130308.097500", "130310.097500", "130312.097500", "130314.097500", "130316.097500", "130318.097500", "130320.097500", "130322.097500", "130324.097500", "130326.097500", "130328.097500", "130330.097500", "130332.097500", "130334.097500", "130336.097500", "130338.097500", "130340.097500", "130342.097500", "130344.100000", "130346.100000", "130348.100000", "130350.100000", "130352.100000", "130354.100000", "130356.100000", "130358.100000", "130400.100000", "130402.100000", "130404.100000", "130406.100000", "130408.100000", "130410.100000", "130412.100000", "130414.100000", "130416.100000", "130418.100000", "130420.100000", "130422.100000", "130424.100000", "130426.100000", "130428.100000", "130430.100000", "130432.100000", "130434.100000", "130436.100000", "130438.100000", "130440.100000", "130442.100000", "130444.100000", "130446.100000", "130448.100000", "130450.100000", "130452.100000", "130454.100000", "130456.100000", "130458.100000", "130500.100000", "130502.100000", "130504.100000", "130506.100000", "130508.100000", "130510.100000", "130512.100000", "130514.100000", "130516.100000", "130518.100000", "130520.100000", "130522.100000", "130524.100000", "130526.100000", "130528.100000", "130530.100000", "130532.100000", "130534.100000", "130536.100000", "130538.100000", "130540.100000", "130542.100000", "130544.100000", "130546.100000", "130548.100000", "130550.100000", "130552.100000", "130554.100000", "130556.100000", "130558.100000", "130600.100000", "130602.100000", "130604.100000", "130606.100000", "130608.100000", "130610.100000", "130612.100000", "130614.100000", "130616.100000", "130618.100000", "130620.100000", "130622.100000", "130624.100000", "130626.100000", "130628.100000", "130630.100000", "130632.100000", "130634.100000", "130636.100000", "130638.100000", "130640.100000", "130642.100000", "130644.100000", "130646.100000", "130648.100000", "130650.100000", "130652.100000", "130654.100000", "130656.100000", "130658.100000", "130700.100000", "130702.100000", "130704.100000", "130706.100000", "130708.100000", "130710.100000", "130712.100000", "130714.100000", "130716.100000", "130718.100000", "130720.100000", "130722.100000"],
      "ContentTime": ["125032.547000", "125032.550000", "125032.552000", "125032.554000", "125032.562000", "125032.564000", "125032.566000", "125032.568000", "125112.542000", "125112.544000", "125112.547000", "125112.548000", "125112.550000", "125112.552000", "125112.555000", "125112.557000", "125112.559000", "125112.560000", "125112.563000", "125112.564000", "125112.566000", "125112.568000", "125112.570000", "125112.572000", "125112.574000", "125112.576000", "125112.578000", "125112.580000", "125152.542000", "125152.544000", "125152.547000", "125152.549000", "125152.551000", "125152.553000", "125152.555000", "125152.557000", "125152.559000", "125152.560000", "125152.562000", "125152.564000", "125152.566000", "125152.568000", "125152.570000", "125152.572000", "125152.574000", "125152.576000", "125152.578000", "125152.580000", "125232.542000", "125232.544000", "125232.547000", "125232.549000", "125232.551000", "125232.553000", "125232.555000", "125232.557000", "125232.559000", "125232.560000", "125232.563000", "125232.565000", "125232.566000", "125232.568000", "125232.570000", "125232.572000", "125232.574000", "125232.576000", "125232.578000", "125232.580000", "125312.542000", "125312.544000", "125312.547000", "125312.549000", "125312.551000", "125312.553000", "125312.555000", "125312.557000", "125312.559000", "125312.560000", "125312.563000", "125312.564000", "125312.566000", "125312.568000", "125312.570000", "125312.572000", "125312.574000", "125312.576000", "125312.578000", "125312.580000", "125352.543000", "125352.545000", "125352.547000", "125352.549000", "125352.551000", "125352.553000", "125352.556000", "125352.558000", "125352.559000", "125352.561000", "125352.578000", "125352.580000", "125352.582000", "125352.584000", "125352.587000", "125352.589000", "125352.590000", "125352.592000", "125352.595000", "125352.596000", "125432.542000", "125432.544000", "125432.547000", "125432.549000", "125432.551000", "125432.553000", "125432.555000", "125432.557000", "125432.559000", "125432.561000", "125432.563000", "125432.565000", "125432.566000", "125432.568000", "125432.570000", "125432.572000", "125432.574000", "125432.576000", "125432.578000", "125432.580000", "125512.542000", "125512.544000", "125512.554000", "125512.556000", "125512.558000", "125512.560000", "125512.562000", "125512.564000", "125512.566000", "125512.568000", "125512.570000", "125512.572000", "125512.574000", "125512.576000", "125512.578000", "125512.580000", "125512.582000", "125512.583000", "125512.586000", "125512.588000", "125552.542000", "125552.544000", "125552.546000", "125552.548000", "125552.550000", "125552.552000", "125552.554000", "125552.556000", "125552.558000", "125552.560000", "125552.563000", "125552.565000", "125552.567000", "125552.568000", "125552.571000", "125552.572000", "125552.574000", "125552.576000", "125552.578000", "125552.580000", "125632.542000", "125632.544000", "125632.547000", "125632.549000", "125632.551000", "125632.553000", "125632.555000", "125632.557000", "125632.559000", "125632.561000", "125632.563000", "125632.565000", "125632.567000", "125632.568000", "125632.571000", "125632.572000", "125632.574000", "125632.576000", "125632.578000", "125632.580000", "125712.542000", "125712.544000", "125712.547000", "125712.559000", "125712.561000", "125712.563000", "125712.565000", "125712.567000", "125712.569000", "125712.571000", "125712.573000", "125712.575000", "125712.577000", "125712.579000", "125712.581000", "125712.583000", "125712.585000", "125712.587000", "125712.589000", "125712.591000", "125752.542000", "125752.544000", "125752.546000", "125752.548000", "125752.550000", "125752.552000", "125752.555000", "125752.556000", "125752.558000", "125752.560000", "125752.563000", "125752.565000", "125752.566000", "125752.568000", "125752.571000", "125752.572000", "125752.574000", "125752.576000", "125752.579000", "125752.581000", "125832.542000", "125832.544000", "125832.547000", "125832.549000", "125832.551000", "125832.553000", "125832.555000", "125832.557000", "125832.559000", "125832.561000", "125832.563000", "125832.565000", "125832.567000", "125832.569000", "125832.571000", "125832.573000", "125832.575000", "125832.577000", "125832.579000", "125832.581000", "125912.542000", "125912.544000", "125912.547000", "125912.549000", "125912.551000", "125912.553000", "125912.555000", "125912.557000", "125912.559000", "125912.561000", "125912.563000", "125912.565000", "125912.567000", "125912.569000", "125912.571000", "125912.573000", "125912.575000", "125912.576000", "125912.579000", "125912.580000", "125952.542000", "125952.545000", "125952.547000", "125952.549000", "125952.551000", "125952.553000", "125952.555000", "125952.557000", "125952.559000", "125952.561000", "125952.563000", "125952.565000", "125952.567000", "125952.569000", "125952.571000", "125952.573000", "125952.574000", "125952.576000", "125952.579000", "125952.581000", "130012.542000", "130012.544000", "130012.547000", "130012.548000", "130012.550000", "130012.552000", "130012.555000", "130012.557000", "130012.559000", "130012.561000", "130052.542000", "130052.544000", "130052.546000", "130052.548000", "130052.551000", "130052.553000", "130052.555000", "130052.557000", "130052.559000", "130052.561000", "130052.563000", "130052.565000", "130052.567000", "130052.569000", "130052.571000", "130052.573000", "130052.575000", "130052.577000", "130052.579000", "130052.580000", "130132.542000", "130132.544000", "130132.546000", "130132.548000", "130132.551000", "130132.553000", "130132.555000", "130132.557000", "130132.559000", "130132.561000", "130132.563000", "130132.565000", "130132.567000", "130132.569000", "130132.571000", "130132.572000", "130132.575000", "130132.576000", "130132.578000", "130132.580000", "130212.542000", "130212.544000", "130212.546000", "130212.548000", "130212.551000", "130212.553000", "130212.554000", "130212.556000", "130212.559000", "130212.561000", "130212.562000", "130212.564000", "130212.567000", "130212.569000", "130212.570000", "130212.572000", "130212.575000", "130212.577000", "130212.579000", "130212.581000", "130252.542000", "130252.544000", "130252.547000", "130252.549000", "130252.551000", "130252.553000", "130252.555000", "130252.557000", "130252.559000", "130252.561000", "130252.563000", "130252.565000", "130252.567000", "130252.569000", "130252.571000", "130252.573000", "130252.575000", "130252.577000", "130252.579000", "130252.581000", "130332.542000", "130332.544000", "130332.546000", "130332.548000", "130332.551000", "130332.553000", "130332.555000", "130332.557000", "130332.559000", "130332.561000", "130332.563000", "130332.565000", "130332.567000", "130332.569000", "130332.571000", "130332.573000", "130332.575000", "130332.577000", "130332.579000", "130332.580000", "130412.542000", "130412.544000", "130412.546000", "130412.548000", "130412.551000", "130412.553000", "130412.555000", "130412.557000", "130412.559000", "130412.561000", "130412.563000", "130412.564000", "130412.567000", "130412.569000", "130412.570000", "130412.572000", "130412.574000", "130412.576000", "130412.578000", "130412.580000", "130452.542000", "130452.545000", "130452.547000", "130452.549000", "130452.551000", "130452.553000", "130452.555000", "130452.557000", "130452.559000", "130452.561000", "130452.563000", "130452.565000", "130452.567000", "130452.569000", "130452.571000", "130452.573000", "130452.575000", "130452.577000", "130452.579000", "130452.581000", "130532.542000", "130532.545000", "130532.547000", "130532.548000", "130532.551000", "130532.553000", "130532.555000", "130532.556000", "130532.570000", "130532.572000", "130532.574000", "130532.576000", "130532.578000", "130532.580000", "130532.582000", "130532.584000", "130532.586000", "130532.588000", "130532.590000", "130532.592000", "130612.542000", "130612.544000", "130612.546000", "130612.548000", "130612.551000", "130612.553000", "130612.555000", "130612.557000", "130612.559000", "130612.561000", "130612.563000", "130612.565000", "130612.567000", "130612.569000", "130612.571000", "130612.573000", "130612.575000", "130612.577000", "130612.579000", "130612.581000", "130652.542000", "130652.545000", "130652.547000", "130652.548000", "130652.551000", "130652.553000", "130652.555000", "130652.557000", "130652.559000", "130652.561000", "130652.563000", "130652.565000", "130652.567000", "130652.569000", "130652.571000", "130652.572000", "130652.574000", "130652.576000", "130652.578000", "130652.580000", "130723.493000", "130723.496000", "130723.498000", "130723.500000", "130723.502000", "130723.504000", "130723.506000", "130723.508000", "130723.510000", "130723.512000", "130723.514000", "130723.516000", "130723.518000", "130723.521000", "130723.524000", "130723.527000"],
