{
  "AcquisitionMatrixPE": 64,
  "AcquisitionNumber": 1,
  "AcquisitionTime": "13:22:47.710000",
  "BandwidthPerPixelPhaseEncode": 25.202,
  "BaseResolution": 64,
  "BodyPartExamined": "BRAIN",
  "ConsistencyInfo": "N4_VD13C_LATEST_20121124",
  "ConversionSoftware": "dcm2niix",
  "ConversionSoftwareVersion": "v1.0.20201102",
  "DerivedVendorReportedEchoSpacing": 0.00061999,
  "DeviceSerialNumber": "45758",
  "DwellTime": 4.3e-06,
  "EchoTime": 0.03,
  "EchoTrainLength": 64,
  "EffectiveEchoSpacing": 0.00061999,
  "FlipAngle": 90,
  "ImageOrientationPatientDICOM": [0.999971, 0.00521055, -0.0055545, -0.00523588, 0.999976, -0.0045556],
  "ImageType": [
    "ORIGINAL",
    "PRIMARY",
    "M",
    "ND",
    "MOSAIC"
],
  "ImagingFrequency": 123.2,
  "InPlanePhaseEncodingDirectionDICOM": "ROW",
  "InstitutionAddress": "Street StreetNo,City /652E4B/,District,KR,ZIP",
  "InstitutionName": "DGMIF",
  "InstitutionalDepartmentName": "Department",
  "MRAcquisitionType": "2D",
  "MagneticFieldStrength": 3,
  "Manufacturer": "Siemens",
  "ManufacturersModelName": "Skyra",
  "Modality": "MR",
  "PartialFourier": 1,
  "PatientPosition": "HFS",
  "PercentPhaseFOV": 100,
  "PercentSampling": 100,
  "PhaseEncodingDirection": "i",
  "PhaseEncodingSteps": 64,
  "PhaseResolution": 1,
  "PixelBandwidth": 1815,
  "ProcedureStepDescription": "DGMIF^DGIST_Jeon",
  "ProtocolName": "EPI_DGIST_3",
  "PulseSequenceDetails": "%SiemensSeq%\\ep2d_bold",
  "ReceiveCoilActiveElements": "HC1-6",
  "ReceiveCoilName": "HeadNeck_64",
  "ReconMatrixPE": 64,
  "RepetitionTime": 2,
  "SAR": 0.107449,
  "ScanOptions": "FS",
  "ScanningSequence": "EP",
  "SequenceName": "*epfid2d1_64",
  "SequenceVariant": "SK",
  "SeriesDescription": "EPI_DGIST_3",
  "SeriesNumber": 4,
  "ShimSetting": [-9758, -13630, -8286, 404, -636, -84, -194, 29],
  "SliceThickness": 4,
  "SliceTiming": [0.99, 0, 1.055, 0.065, 1.1225, 0.1325, 1.1875, 0.1975, 1.2525, 0.2625, 1.32, 0.33, 1.385, 0.395, 1.4525, 0.4625, 1.5175, 0.5275, 1.5825, 0.5925, 1.65, 0.66, 1.715, 0.725, 1.7825, 0.7925, 1.8475, 0.8575, 1.9125, 0.9225],
  "SoftwareVersions": "syngo MR D13C",
  "SpacingBetweenSlices": 4.8,
  "StationName": "AWP45758",
  "TaskName": "asrt",
  "TotalReadoutTime": 0.0390594,
  "TxRefAmp": 312.122,
  "dcmmeta_affine": [
    [-2.999912977218628, -0.015707651153206825, -0.026547005400061607, 95.72084045410156],
    [-0.0156316589564085, 2.9999277591705322, -0.02200585976243019, -124.02738952636719],
    [-0.01666349172592163, 0.013666811399161816, 4.7998762130737305, -81.78947448730469],
    [0.0, 0.0, 0.0, 1.0]
],
  "dcmmeta_reorient_transform": [
    [0.0, -1.0, 0.0, 63.0],
    [1.0, 0.0, 0.0, 0.0],
    [0.0, 0.0, 1.0, 0.0],
    [0.0, 0.0, 0.0, 1.0]
],
  "dcmmeta_shape": [64, 64, 30, 364],
  "dcmmeta_slice_dim": 2,
  "dcmmeta_version": 0.6,
  "global": {
    "const": {
      "AcquisitionMatrix": [0, 64, 64, 0],
      "AngioFlag": "N",
      "BitsAllocated": 16,
      "BitsStored": 12,
      "BodyPartExamined": "BRAIN",
      "Columns": 384,
      "EchoNumbers": 1,
      "EchoTime": 30.0,
      "EchoTrainLength": 64,
      "FlipAngle": 90.0,
      "HighBit": 11,
      "ImageOrientationPatient": [0.99997099842852, 0.00521055317235, -0.0055544970524, -0.0052358836162, 0.99997591570869, -0.0045556037273],
      "ImagePositionPatient": [-572.20411003703, -547.45756179142, -76.075614543684],
      "ImageType": [
        "ORIGINAL",
        "PRIMARY",
        "M",
        "ND",
        "MOSAIC"
],
      "ImagedNucleus": "1H",
      "ImagingFrequency": 123.200269,
      "InPlanePhaseEncodingDirection": "ROW",
      "MRAcquisitionType": "2D",
      "MagneticFieldStrength": 3.0,
      "Manufacturer": "SIEMENS",
      "ManufacturerModelName": "Skyra",
      "Modality": "MR",
      "NumberOfAverages": 1.0,
      "NumberOfPhaseEncodingSteps": 64,
      "PercentPhaseFieldOfView": 100.0,
      "PercentSampling": 100.0,
      "PerformedProcedureStepStartTime": "124623.646000",
      "PhotometricInterpretation": "MONOCHROME2",
      "PixelBandwidth": 1815.0,
      "PixelRepresentation": 0,
      "PixelSpacing": [3.0, 3.0],
      "ProtocolName": "EPI_DGIST_3",
      "RepetitionTime": 2000.0,
      "Rows": 384,
      "SAR": 0.10744930118588,
      "SamplesPerPixel": 1,
      "ScanOptions": "FS",
      "ScanningSequence": "EP",
      "SequenceName": "*epfid2d1_64",
      "SequenceVariant": "SK",
      "SeriesDescription": "EPI_DGIST_3",
      "SeriesNumber": 4,
      "SeriesTime": "132342.389000",
      "SliceLocation": -81.748147426971,
      "SliceThickness": 4.0,
      "SmallestImagePixelValue": 0,
      "SoftwareVersions": "syngo MR D13C",
      "SpacingBetweenSlices": 4.7999999703797,
      "SpecificCharacterSet": "ISO_IR 100",
      "StudyID": "1",
      "StudyTime": "124623.538000",
      "TimeOfLastCalibration": ["123723.000000", "123723.000000"],
      "TransmitCoilName": "Body",
      "VariableFlipAngleFlag": "N",
      "WindowCenterWidthExplanation": "Algo1",
      "dBdt": 0.0},
    "slices": {}
  },
  "time": {
    "samples": {
      "AcquisitionNumber": [1, 2, 3, 4, 5, 6, 7, 8, 9, 10, 11, 12, 13, 14, 15, 16, 17, 18, 19, 20, 21, 22, 23, 24, 25, 26, 27, 28, 29, 30, 31, 32, 33, 34, 35, 36, 37, 38, 39, 40, 41, 42, 43, 44, 45, 46, 47, 48, 49, 50, 51, 52, 53, 54, 55, 56, 57, 58, 59, 60, 61, 62, 63, 64, 65, 66, 67, 68, 69, 70, 71, 72, 73, 74, 75, 76, 77, 78, 79, 80, 81, 82, 83, 84, 85, 86, 87, 88, 89, 90, 91, 92, 93, 94, 95, 96, 97, 98, 99, 100, 101, 102, 103, 104, 105, 106, 107, 108, 109, 110, 111, 112, 113, 114, 115, 116, 117, 118, 119, 120, 121, 122, 123, 124, 125, 126, 127, 128, 129, 130, 131, 132, 133, 134, 135, 136, 137, 138, 139, 140, 141, 142, 143, 144, 145, 146, 147, 148, 149, 150, 151, 152, 153, 154, 155, 156, 157, 158, 159, 160, 161, 162, 163, 164, 165, 166, 167, 168, 169, 170, 171, 172, 173, 174, 175, 176, 177, 178, 179, 180, 181, 182, 183, 184, 185, 186, 187, 188, 189, 190, 191, 192, 193, 194, 195, 196, 197, 198, 199, 200, 201, 202, 203, 204, 205, 206, 207, 208, 209, 210, 211, 212, 213, 214, 215, 216, 217, 218, 219, 220, 221, 222, 223, 224, 225, 226, 227, 228, 229, 230, 231, 232, 233, 234, 235, 236, 237, 238, 239, 240, 241, 242, 243, 244, 245, 246, 247, 248, 249, 250, 251, 252, 253, 254, 255, 256, 257, 258, 259, 260, 261, 262, 263, 264, 265, 266, 267, 268, 269, 270, 271, 272, 273, 274, 275, 276, 277, 278, 279, 280, 281, 282, 283, 284, 285, 286, 287, 288, 289, 290, 291, 292, 293, 294, 295, 296, 297, 298, 299, 300, 301, 302, 303, 304, 305, 306, 307, 308, 309, 310, 311, 312, 313, 314, 315, 316, 317, 318, 319, 320, 321, 322, 323, 324, 325, 326, 327, 328, 329, 330, 331, 332, 333, 334, 335, 336, 337, 338, 339, 340, 341, 342, 343, 344, 345, 346, 347, 348, 349, 350, 351, 352, 353, 354, 355, 356, 357, 358, 359, 360, 361, 362, 363, 364],
      "AcquisitionTime": ["132247.710000", "132249.710000", "132251.710000", "132253.710000", "132255.710000", "132257.710000", "132259.710000", "132301.710000", "132303.710000", "132305.710000", "132307.710000", "132309.710000", "132311.710000", "132313.710000", "132315.710000", "132317.710000", "132319.710000", "132321.710000", "132323.710000", "132325.710000", "132327.710000", "132329.710000", "132331.710000", "132333.710000", "132335.710000", "132337.710000", "132339.710000", "132341.710000", "132343.710000", "132345.710000", "132347.710000", "132349.710000", "132351.710000", "132353.710000", "132355.710000", "132357.710000", "132359.710000", "132401.710000", "132403.710000", "132405.710000", "132407.710000", "132409.710000", "132411.710000", "132413.710000", "132415.710000", "132417.710000", "132419.710000", "132421.710000", "132423.710000", "132425.710000", "132427.710000", "132429.710000", "132431.710000", "132433.710000", "132435.710000", "132437.710000", "132439.710000", "132441.710000", "132443.710000", "132445.710000", "132447.710000", "132449.710000", "132451.710000", "132453.710000", "132455.710000", "132457.710000", "132459.710000", "132501.710000", "132503.710000", "132505.710000", "132507.710000", "132509.710000", "132511.710000", "132513.710000", "132515.710000", "132517.710000", "132519.710000", "132521.710000", "132523.710000", "132525.710000", "132527.710000", "132529.710000", "132531.710000", "132533.710000", "132535.710000", "132537.710000", "132539.710000", "132541.710000", "132543.710000", "132545.710000", "132547.710000", "132549.710000", "132551.710000", "132553.710000", "132555.710000", "132557.710000", "132559.710000", "132601.710000", "132603.710000", "132605.710000", "132607.710000", "132609.710000", "132611.710000", "132613.710000", "132615.710000", "132617.710000", "132619.710000", "132621.710000", "132623.710000", "132625.710000", "132627.710000", "132629.710000", "132631.710000", "132633.710000", "132635.710000", "132637.710000", "132639.710000", "132641.710000", "132643.710000", "132645.710000", "132647.710000", "132649.710000", "132651.710000", "132653.710000", "132655.710000", "132657.710000", "132659.710000", "132701.710000", "132703.710000", "132705.710000", "132707.710000", "132709.710000", "132711.710000", "132713.710000", "132715.710000", "132717.710000", "132719.710000", "132721.710000", "132723.710000", "132725.710000", "132727.710000", "132729.710000", "132731.710000", "132733.710000", "132735.710000", "132737.710000", "132739.710000", "132741.710000", "132743.710000", "132745.710000", "132747.710000", "132749.710000", "132751.710000", "132753.710000", "132755.710000", "132757.710000", "132759.710000", "132801.710000", "132803.710000", "132805.710000", "132807.710000", "132809.710000", "132811.710000", "132813.710000", "132815.710000", "132817.712500", "132819.712500", "132821.712500", "132823.712500", "132825.712500", "132827.712500", "132829.712500", "132831.712500", "132833.712500", "132835.712500", "132837.712500", "132839.712500", "132841.712500", "132843.712500", "132845.712500", "132847.712500", "132849.712500", "132851.712500", "132853.712500", "132855.712500", "132857.712500", "132859.712500", "132901.712500", "132903.712500", "132905.712500", "132907.712500", "132909.712500", "132911.712500", "132913.712500", "132915.712500", "132917.712500", "132919.712500", "132921.712500", "132923.712500", "132925.712500", "132927.712500", "132929.712500", "132931.712500", "132933.712500", "132935.712500", "132937.712500", "132939.712500", "132941.712500", "132943.712500", "132945.712500", "132947.712500", "132949.712500", "132951.712500", "132953.712500", "132955.712500", "132957.712500", "132959.712500", "133001.712500", "133003.712500", "133005.712500", "133007.712500", "133009.712500", "133011.712500", "133013.712500", "133015.712500", "133017.712500", "133019.712500", "133021.712500", "133023.712500", "133025.712500", "133027.712500", "133029.712500", "133031.712500", "133033.712500", "133035.712500", "133037.712500", "133039.712500", "133041.712500", "133043.712500", "133045.712500", "133047.712500", "133049.712500", "133051.712500", "133053.712500", "133055.712500", "133057.712500", "133059.712500", "133101.712500", "133103.712500", "133105.712500", "133107.712500", "133109.712500", "133111.712500", "133113.712500", "133115.712500", "133117.712500", "133119.712500", "133121.712500", "133123.712500", "133125.712500", "133127.712500", "133129.712500", "133131.712500", "133133.712500", "133135.712500", "133137.712500", "133139.712500", "133141.712500", "133143.712500", "133145.712500", "133147.712500", "133149.712500", "133151.712500", "133153.712500", "133155.712500", "133157.712500", "133159.712500", "133201.712500", "133203.712500", "133205.712500", "133207.712500", "133209.712500", "133211.712500", "133213.712500", "133215.712500", "133217.712500", "133219.712500", "133221.712500", "133223.712500", "133225.712500", "133227.712500", "133229.712500", "133231.712500", "133233.712500", "133235.712500", "133237.712500", "133239.712500", "133241.712500", "133243.712500", "133245.712500", "133247.712500", "133249.712500", "133251.712500", "133253.712500", "133255.712500", "133257.712500", "133259.712500", "133301.712500", "133303.712500", "133305.712500", "133307.712500", "133309.712500", "133311.712500", "133313.712500", "133315.712500", "133317.712500", "133319.712500", "133321.712500", "133323.712500", "133325.712500", "133327.712500", "133329.712500", "133331.712500", "133333.712500", "133335.712500", "133337.712500", "133339.712500", "133341.712500", "133343.712500", "133345.712500", "133347.712500", "133349.712500", "133351.712500", "133353.712500", "133355.712500", "133357.712500", "133359.712500", "133401.712500", "133403.712500", "133405.712500", "133407.712500", "133409.712500", "133411.712500", "133413.712500", "133415.712500", "133417.712500", "133419.712500", "133421.712500", "133423.712500", "133425.712500", "133427.712500", "133429.712500", "133431.712500", "133433.712500", "133435.712500", "133437.712500", "133439.712500", "133441.712500", "133443.712500", "133445.712500", "133447.712500", "133449.712500", "133451.712500", "133453.712500"],
      "ContentTime": ["132342.392000", "132342.394000", "132342.396000", "132342.398000", "132342.400000", "132342.402000", "132342.404000", "132342.406000", "132342.408000", "132342.410000", "132342.412000", "132342.414000", "132342.416000", "132342.418000", "132342.420000", "132342.427000", "132342.429000", "132342.431000", "132342.433000", "132342.435000", "132342.437000", "132342.439000", "132342.441000", "132342.443000", "132342.445000", "132342.447000", "132342.449000", "132422.387000", "132422.389000", "132422.391000", "132422.393000", "132422.395000", "132422.397000", "132422.399000", "132422.401000", "132422.403000", "132422.405000", "132422.407000", "132422.417000", "132422.418000", "132422.420000", "132422.422000", "132422.424000", "132422.426000", "132422.428000", "132422.430000", "132422.432000", "132502.386000", "132502.388000", "132502.390000", "132502.392000", "132502.394000", "132502.396000", "132502.398000", "132502.400000", "132502.402000", "132502.404000", "132502.406000", "132502.408000", "132502.410000", "132502.412000", "132502.414000", "132502.416000", "132502.428000", "132502.430000", "132502.437000", "132502.439000", "132542.387000", "132542.389000", "132542.391000", "132542.393000", "132542.395000", "132542.397000", "132542.407000", "132542.409000", "132542.411000", "132542.413000", "132542.415000", "132542.417000", "132542.419000", "132542.420000", "132542.422000", "132542.424000", "132542.426000", "132542.428000", "132542.430000", "132542.432000", "132622.387000", "132622.389000", "132622.391000", "132622.393000", "132622.395000", "132622.397000", "132622.399000", "132622.401000", "132622.403000", "132622.405000", "132622.407000", "132622.409000", "132622.411000", "132622.413000", "132622.415000", "132622.416000", "132622.418000", "132622.420000", "132622.422000", "132622.424000", "132702.386000", "132702.388000", "132702.390000", "132702.392000", "132702.394000", "132702.396000", "132702.398000", "132702.400000", "132702.402000", "132702.404000", "132702.406000", "132702.408000", "132702.410000", "132702.412000", "132702.414000", "132702.416000", "132702.417000", "132702.419000", "132702.421000", "132702.423000", "132742.387000", "132742.389000", "132742.391000", "132742.393000", "132742.395000", "132742.397000", "132742.399000", "132742.405000", "132742.407000", "132742.409000", "132742.411000", "132742.413000", "132742.415000", "132742.417000", "132742.419000", "132742.421000", "132742.422000", "132742.424000", "132742.426000", "132742.428000", "132822.387000", "132822.389000", "132822.391000", "132822.393000", "132822.395000", "132822.397000", "132822.399000", "132822.401000", "132822.403000", "132822.405000", "132822.407000", "132822.409000", "132822.411000", "132822.413000", "132822.415000", "132822.417000", "132822.419000", "132822.421000", "132822.423000", "132822.425000", "132902.387000", "132902.389000", "132902.391000", "132902.393000", "132902.395000", "132902.397000", "132902.399000", "132902.401000", "132902.403000", "132902.405000", "132902.407000", "132902.409000", "132902.411000", "132902.413000", "132902.415000", "132902.417000", "132902.419000", "132902.421000", "132902.423000", "132902.424000", "132942.387000", "132942.389000", "132942.391000", "132942.393000", "132942.395000", "132942.397000", "132942.399000", "132942.401000", "132942.403000", "132942.405000", "132942.407000", "132942.409000", "132942.411000", "132942.413000", "132942.415000", "132942.417000", "132942.419000", "132942.421000", "132942.423000", "132942.425000", "133002.387000", "133002.389000", "133002.391000", "133002.393000", "133002.395000", "133002.397000", "133002.399000", "133002.401000", "133002.403000", "133002.405000", "133042.387000", "133042.389000", "133042.391000", "133042.393000", "133042.395000", "133042.397000", "133042.399000", "133042.401000", "133042.403000", "133042.405000", "133042.407000", "133042.409000", "133042.411000", "133042.413000", "133042.415000", "133042.417000", "133042.419000", "133042.421000", "133042.423000", "133042.425000", "133122.387000", "133122.389000", "133122.391000", "133122.393000", "133122.395000", "133122.397000", "133122.399000", "133122.401000", "133122.403000", "133122.405000", "133122.407000", "133122.409000", "133122.411000", "133122.413000", "133122.415000", "133122.417000", "133122.419000", "133122.421000", "133122.423000", "133122.425000", "133202.387000", "133202.389000", "133202.391000", "133202.393000", "133202.395000", "133202.397000", "133202.399000", "133202.401000", "133202.403000", "133202.405000", "133202.407000", "133202.409000", "133202.411000", "133202.413000", "133202.415000", "133202.417000", "133202.419000", "133202.421000", "133202.423000", "133202.425000", "133242.387000", "133242.389000", "133242.391000", "133242.393000", "133242.395000", "133242.397000", "133242.399000", "133242.401000", "133242.403000", "133242.405000", "133242.407000", "133242.409000", "133242.411000", "133242.413000", "133242.415000", "133242.417000", "133242.419000", "133242.421000", "133242.423000", "133242.424000", "133322.387000", "133322.389000", "133322.391000", "133322.393000", "133322.395000", "133322.397000", "133322.399000", "133322.401000", "133322.403000", "133322.405000", "133322.407000", "133322.409000", "133322.411000", "133322.413000", "133322.415000", "133322.417000", "133322.419000", "133322.421000", "133322.423000", "133322.425000", "133402.386000", "133402.398000", "133402.400000", "133402.402000", "133402.404000", "133402.406000", "133402.408000", "133402.410000", "133402.412000", "133402.413000", "133402.415000", "133402.417000", "133402.419000", "133402.421000", "133402.423000", "133402.425000", "133402.427000", "133402.429000", "133402.431000", "133402.433000", "133442.387000", "133442.389000", "133442.391000", "133442.393000", "133442.395000", "133442.397000", "133442.399000", "133442.401000", "133442.403000", "133442.405000", "133442.407000", "133442.409000", "133442.411000", "133442.413000", "133442.415000", "133442.417000", "133442.419000", "133442.421000", "133442.423000", "133442.425000", "133455.391000", "133455.394000", "133455.396000", "133455.398000", "133455.400000", "133455.402000", "133455.404000"],
      "InstanceCreationTime": ["132342.392000", "132342.394000", "132342.396000", "132342.398000", "132342.400000", "132342.402000", "132342.404000", "132342.406000", "132342.408000", "132342.410000", "132342.412000", "132342.414000", "132342.416000", "132342.418000", "132342.420000", "132342.427000", "132342.429000", "132342.431000", "132342.433000", "132342.435000", "132342.437000", "132342.439000", "132342.441000", "132342.443000", "132342.445000", "132342.447000", "132342.449000", "132422.387000", "132422.389000", "132422.391000", "132422.393000", "132422.395000", "132422.397000", "132422.399000", "132422.401000", "132422.403000", "132422.405000", "132422.407000", "132422.417000", "132422.418000", "132422.420000", "132422.422000", "132422.424000", "132422.426000", "132422.428000", "132422.430000", "132422.432000", "132502.386000", "132502.388000", "132502.390000", "132502.392000", "132502.394000", "132502.396000", "132502.398000", "132502.400000", "132502.402000", "132502.404000", "132502.406000", "132502.408000", "132502.410000", "132502.412000", "132502.414000", "132502.416000", "132502.428000", "132502.430000", "132502.437000", "132502.439000", "132542.387000", "132542.389000", "132542.391000", "132542.393000", "132542.395000", "132542.397000", "132542.407000", "132542.409000", "132542.411000", "132542.413000", "132542.415000", "132542.417000", "132542.419000", "132542.420000", "132542.422000", "132542.424000", "132542.426000", "132542.428000", "132542.430000", "132542.432000", "132622.387000", "132622.389000", "132622.391000", "132622.393000", "132622.395000", "132622.397000", "132622.399000", "132622.401000", "132622.403000", "132622.405000", "132622.407000", "132622.409000", "132622.411000", "132622.413000", "132622.415000", "132622.416000", "132622.418000", "132622.420000", "132622.422000", "132622.424000", "132702.386000", "132702.388000", "132702.390000", "132702.392000", "132702.394000", "132702.396000", "132702.398000", "132702.400000", "132702.402000", "132702.404000", "132702.406000", "132702.408000", "132702.410000", "132702.412000", "132702.414000", "132702.416000", "132702.417000", "132702.419000", "132702.421000", "132702.423000", "132742.387000", "132742.389000", "132742.391000", "132742.393000", "132742.395000", "132742.397000", "132742.399000", "132742.405000", "132742.407000", "132742.409000", "132742.411000", "132742.413000", "132742.415000", "132742.417000", "132742.419000", "132742.421000", "132742.422000", "132742.424000", "132742.426000", "132742.428000", "132822.387000", "132822.389000", "132822.391000", "132822.393000", "132822.395000", "132822.397000", "132822.399000", "132822.401000", "132822.403000", "132822.405000", "132822.407000", "132822.409000", "132822.411000", "132822.413000", "132822.415000", "132822.417000", "132822.419000", "132822.421000", "132822.423000", "132822.425000", "132902.387000", "132902.389000", "132902.391000", "132902.393000", "132902.395000", "132902.397000", "132902.399000", "132902.401000", "132902.403000", "132902.405000", "132902.407000", "132902.409000", "132902.411000", "132902.413000", "132902.415000", "132902.417000", "132902.419000", "132902.421000", "132902.423000", "132902.424000", "132942.387000", "132942.389000", "132942.391000", "132942.393000", "132942.395000", "132942.397000", "132942.399000", "132942.401000", "132942.403000", "132942.405000", "132942.407000", "132942.409000", "132942.411000", "132942.413000", "132942.415000", "132942.417000", "132942.419000", "132942.421000", "132942.423000", "132942.425000", "133002.387000", "133002.389000", "133002.391000", "133002.393000", "133002.395000", "133002.397000", "133002.399000", "133002.401000", "133002.403000", "133002.405000", "133042.387000", "133042.389000", "133042.391000", "133042.393000", "133042.395000", "133042.397000", "133042.399000", "133042.401000", "133042.403000", "133042.405000", "133042.407000", "133042.409000", "133042.411000", "133042.413000", "133042.415000", "133042.417000", "133042.419000", "133042.421000", "133042.423000", "133042.425000", "133122.387000", "133122.389000", "133122.391000", "133122.393000", "133122.395000", "133122.397000", "133122.399000", "133122.401000", "133122.403000", "133122.405000", "133122.407000", "133122.409000", "133122.411000", "133122.413000", "133122.415000", "133122.417000", "133122.419000", "133122.421000", "133122.423000", "133122.425000", "133202.387000", "133202.389000", "133202.391000", "133202.393000", "133202.395000", "133202.397000", "133202.399000", "133202.401000", "133202.403000", "133202.405000", "133202.407000", "133202.409000", "133202.411000", "133202.413000", "133202.415000", "133202.417000", "133202.419000", "133202.421000", "133202.423000", "133202.425000", "133242.387000", "133242.389000", "133242.391000", "133242.393000", "133242.395000", "133242.397000", "133242.399000", "133242.401000", "133242.403000", "133242.405000", "133242.407000", "133242.409000", "133242.411000", "133242.413000", "133242.415000", "133242.417000", "133242.419000", "133242.421000", "133242.423000", "133242.424000", "133322.387000", "133322.389000", "133322.391000", "133322.393000", "133322.395000", "133322.397000", "133322.399000", "133322.401000", "133322.403000", "133322.405000", "133322.407000", "133322.409000", "133322.411000", "133322.413000", "133322.415000", "133322.417000", "133322.419000", "133322.421000", "133322.423000", "133322.425000", "133402.386000", "133402.398000", "133402.400000", "133402.402000", "133402.404000", "133402.406000", "133402.408000", "133402.410000", "133402.412000", "133402.413000", "133402.415000", "133402.417000", "133402.419000", "133402.421000", "133402.423000", "133402.425000", "133402.427000", "133402.429000", "133402.431000", "133402.433000", "133442.387000", "133442.389000", "133442.391000", "133442.393000", "133442.395000", "133442.397000", "133442.399000", "133442.401000", "133442.403000", "133442.405000", "133442.407000", "133442.409000", "133442.411000", "133442.413000", "133442.415000", "133442.417000", "133442.419000", "133442.421000", "133442.423000", "133442.425000", "133455.391000", "133455.394000", "133455.396000", "133455.398000", "133455.400000", "133455.402000", "133455.404000"],
      "InstanceNumber": [1, 2, 3, 4, 5, 6, 7, 8, 9, 10, 11, 12, 13, 14, 15, 16, 17, 18, 19, 20, 21, 22, 23, 24, 25, 26, 27, 28, 29, 30, 31, 32, 33, 34, 35, 36, 37, 38, 39, 40, 41, 42, 43, 44, 45, 46, 47, 48, 49, 50, 51, 52, 53, 54, 55, 56, 57, 58, 59, 60, 61, 62, 63, 64, 65, 66, 67, 68, 69, 70, 71, 72, 73, 74, 75, 76, 77, 78, 79, 80, 81, 82, 83, 84, 85, 86, 87, 88, 89, 90, 91, 92, 93, 94, 95, 96, 97, 98, 99, 100, 101, 102, 103, 104, 105, 106, 107, 108, 109, 110, 111, 112, 113, 114, 115, 116, 117, 118, 119, 120, 121, 122, 123, 124, 125, 126, 127, 128, 129, 130, 131, 132, 133, 134, 135, 136, 137, 138, 139, 140, 141, 142, 143, 144, 145, 146, 147, 148, 149, 150, 151, 152, 153, 154, 155, 156, 157, 158, 159, 160, 161, 162, 163, 164, 165, 166, 167, 168, 169, 170, 171, 172, 173, 174, 175, 176, 177, 178, 179, 180, 181, 182, 183, 184, 185, 186, 187, 188, 189, 190, 191, 192, 193, 194, 195, 196, 197, 198, 199, 200, 201, 202, 203, 204, 205, 206, 207, 208, 209, 210, 211, 212, 213, 214, 215, 216, 217, 218, 219, 220, 221, 222, 223, 224, 225, 226, 227, 228, 229, 230, 231, 232, 233, 234, 235, 236, 237, 238, 239, 240, 241, 242, 243, 244, 245, 246, 247, 248, 249, 250, 251, 252, 253, 254, 255, 256, 257, 258, 259, 260, 261, 262, 263, 264, 265, 266, 267, 268, 269, 270, 271, 272, 273, 274, 275, 276, 277, 278, 279, 280, 281, 282, 283, 284, 285, 286, 287, 288, 289, 290, 291, 292, 293, 294, 295, 296, 297, 298, 299, 300, 301, 302, 303, 304, 305, 306, 307, 308, 309, 310, 311, 312, 313, 314, 315, 316, 317, 318, 319, 320, 321, 322, 323, 324, 325, 326, 327, 328, 329, 330, 331, 332, 333, 334, 335, 336, 337, 338, 339, 340, 341, 342, 343, 344, 345, 346, 347, 348, 349, 350, 351, 352, 353, 354, 355, 356, 357, 358, 359, 360, 361, 362, 363, 364],
      "LargestImagePixelValue": [3065, 2993, 2939, 2925, 2894, 2904, 2923, 2848, 2867, 2945, 2933, 2914, 2927, 2926, 2907, 2898, 2935, 2950, 2889, 2841, 2861, 2887, 2901, 2895, 2845, 2820, 2907, 2917, 2883, 2861, 2906, 2912, 2896, 2886, 2863, 2888, 2896, 2860, 2838, 2879, 2895, 2901, 2921, 2924, 2912, 2910, 2924, 2884, 2850, 2894, 2904, 2879, 2863, 2875, 2904, 2878, 2853, 2886, 2925, 2935, 2936, 2923, 2918, 2899, 2880, 2901, 2930, 2907, 2890, 2921, 2891, 2855, 2848, 2891, 2924, 2942, 2892, 2838, 2856, 2897, 2901, 2864, 2879, 2906, 2903, 2879, 2880, 2881, 2878, 2893, 2898, 2944, 2912, 2873, 2883, 2908, 2923, 2906, 2858, 2867, 2853, 2853, 2869, 2883, 2895, 2883, 2851, 2882, 2903, 2906, 2915, 2893, 2914, 2921, 2908, 2888, 2917, 2857, 2843, 2854, 2873, 2856, 2887, 2885, 2911, 2929, 2918, 2859, 2846, 2845, 2867, 2903, 2902, 2872, 2825, 2887, 2898, 2864, 2849, 2856, 2845, 2845, 2855, 2900, 2911, 2874, 2899, 2901, 2874, 2876, 2844, 2867, 2907, 2901, 2881, 2867, 2874, 2860, 2831, 2864, 2868, 2867, 2852, 2872, 2885, 2848, 2860, 2854, 2857, 2883, 2884, 2885, 2894, 2875, 2840, 2872, 2886, 2857, 2847, 2873, 2895, 2855, 2859, 2902, 2881, 2870, 2882, 2916, 2934, 2909, 2894, 2871, 2885, 2910, 2888, 2867, 2902, 2895, 2868, 2892, 2916, 2936, 2903, 2887, 2932, 2911, 2867, 2895, 2901, 2902, 2856, 2906, 2902, 2911, 2903, 2913, 2928, 2896, 2872, 2885, 2892, 2893, 2902, 2924, 2953, 2928, 2877, 2915, 2944, 2904, 2863, 2893, 2907, 2914, 2908, 2872, 2875, 2892, 2906, 2916, 2888, 2912, 2924, 2902, 2911, 2935, 2949, 2920, 2901, 2889, 2927, 2904, 2859, 2890, 2934, 2913, 2883, 2889, 2905, 2912, 2875, 2870, 2893, 2895, 2923, 2918, 2885, 2877, 2894, 2918, 2892, 2897, 2906, 2913, 2924, 2922, 2887, 2853, 2855, 2900, 2909, 2903, 2892, 2888, 2908, 2899, 2900, 2886, 2878, 2889, 2884, 2897, 2900, 2907, 2921, 2872, 2892, 2905, 2902, 2918, 2874, 2903, 2892, 2895, 2871, 2894, 2930, 2927, 2871, 2880, 2868, 2876, 2891, 2899, 2902, 2894, 2916, 2928, 2891, 2907, 2904, 2893, 2878, 2892, 2895, 2918, 2929, 2921, 2894, 2897, 2898, 2879, 2883, 2880, 2883, 2855, 2859, 2870, 2879, 2891, 2898, 2900, 2898, 2899, 2917, 2910, 2901, 2904, 2912, 2896, 2908, 2907, 2913, 2887, 2884, 2881, 2864, 2874, 2871, 2897, 2896, 2868, 2881, 2898],
