{
  "AcquisitionMatrixPE": 64,
  "AcquisitionNumber": 1,
  "AcquisitionTime": "14:17:21.830000",
  "BandwidthPerPixelPhaseEncode": 25.202,
  "BaseResolution": 64,
  "BodyPartExamined": "BRAIN",
  "ConsistencyInfo": "N4_VD13C_LATEST_20121124",
  "ConversionSoftware": "dcm2niix",
  "ConversionSoftwareVersion": "v1.0.20201102",
  "DerivedVendorReportedEchoSpacing": 0.00061999,
  "DeviceSerialNumber": "45758",
  "DwellTime": 4.3e-06,
  "EchoTime": 0.03,
  "EchoTrainLength": 64,
  "EffectiveEchoSpacing": 0.00061999,
  "FlipAngle": 90,
  "ImageOrientationPatientDICOM": [0.999794, -0.0197159, 0.00478863, 0.019197, 0.995643, 0.0912464],
  "ImageType": [
    "ORIGINAL",
    "PRIMARY",
    "M",
    "ND",
    "MOSAIC"
],
  "ImagingFrequency": 123.2,
  "InPlanePhaseEncodingDirectionDICOM": "ROW",
  "InstitutionAddress": "Street StreetNo,City /652E4B/,District,KR,ZIP",
  "InstitutionName": "DGMIF",
  "InstitutionalDepartmentName": "Department",
  "MRAcquisitionType": "2D",
  "MagneticFieldStrength": 3,
  "Manufacturer": "Siemens",
  "ManufacturersModelName": "Skyra",
  "Modality": "MR",
  "PartialFourier": 1,
  "PatientPosition": "HFS",
  "PercentPhaseFOV": 100,
  "PercentSampling": 100,
  "PhaseEncodingDirection": "i",
  "PhaseEncodingSteps": 64,
  "PhaseResolution": 1,
  "PixelBandwidth": 1815,
  "ProcedureStepDescription": "DGMIF^DGIST_Jeon",
  "ProtocolName": "EPI_DGIST_2",
  "PulseSequenceDetails": "%SiemensSeq%\\ep2d_bold",
  "ReceiveCoilActiveElements": "HC1-7",
  "ReceiveCoilName": "HeadNeck_64",
  "ReconMatrixPE": 64,
  "RepetitionTime": 2,
  "SAR": 0.132537,
  "ScanOptions": "FS",
  "ScanningSequence": "EP",
  "SequenceName": "*epfid2d1_64",
  "SequenceVariant": "SK",
  "SeriesDescription": "EPI_DGIST_2",
  "SeriesNumber": 3,
  "ShimSetting": [-9711, -13672, -8149, 234, -241, -223, -483, -192],
  "SliceThickness": 4,
  "SliceTiming": [0.99, 0, 1.0575, 0.0675, 1.1225, 0.1325, 1.1875, 0.1975, 1.255, 0.265, 1.32, 0.33, 1.3875, 0.3975, 1.4525, 0.4625, 1.5175, 0.5275, 1.585, 0.595, 1.65, 0.66, 1.715, 0.7275, 1.7825, 0.7925, 1.8475, 0.8575, 1.915, 0.925],
  "SoftwareVersions": "syngo MR D13C",
  "SpacingBetweenSlices": 4.8,
  "StationName": "AWP45758",
  "TaskName": "asrt",
  "TotalReadoutTime": 0.0390594,
  "TxRefAmp": 326.056,
  "dcmmeta_affine": [
    [-2.999382495880127, 0.057591088116168976, 0.03152051940560341, 91.69941711425781],
    [0.059147756546735764, 2.9869298934936523, 0.43745118379592896, -127.60904693603516],
    [0.01436589378863573, -0.27373912930488586, 4.77992057800293, -58.57301712036133],
    [0.0, 0.0, 0.0, 1.0]
],
  "dcmmeta_reorient_transform": [
    [0.0, -1.0, 0.0, 63.0],
    [1.0, 0.0, 0.0, 0.0],
    [0.0, 0.0, 1.0, 0.0],
    [0.0, 0.0, 0.0, 1.0]
],
  "dcmmeta_shape": [64, 64, 30, 364],
  "dcmmeta_slice_dim": 2,
  "dcmmeta_version": 0.6,
  "global": {
    "const": {
      "AcquisitionMatrix": [0, 64, 64, 0],
      "AngioFlag": "N",
      "BitsAllocated": 16,
      "BitsStored": 12,
      "BodyPartExamined": "BRAIN",
      "Columns": 384,
      "EchoNumbers": 1,
      "EchoTime": 30.0,
      "EchoTrainLength": 64,
      "FlipAngle": 90.0,
      "HighBit": 11,
      "ImageOrientationPatient": [0.99979415458966, -0.0197159188864, 0.00478863141415, 0.01919702882536, 0.99564329608409, 0.09124637552849],
      "ImagePositionPatient": [-584.44342537401, -529.01267497267, -121.91538427483],
      "ImageType": [
        "ORIGINAL",
        "PRIMARY",
        "M",
        "ND",
        "MOSAIC"
],
      "ImagedNucleus": "1H",
      "ImagingFrequency": 123.20021,
      "InPlanePhaseEncodingDirection": "ROW",
      "MRAcquisitionType": "2D",
      "MagneticFieldStrength": 3.0,
      "Manufacturer": "SIEMENS",
      "ManufacturerModelName": "Skyra",
      "Modality": "MR",
      "NumberOfAverages": 1.0,
      "NumberOfPhaseEncodingSteps": 64,
      "PercentPhaseFieldOfView": 100.0,
      "PercentSampling": 100.0,
      "PerformedProcedureStepStartTime": "135117.363000",
      "PhotometricInterpretation": "MONOCHROME2",
      "PixelBandwidth": 1815.0,
      "PixelRepresentation": 0,
      "PixelSpacing": [3.0, 3.0],
      "ProtocolName": "EPI_DGIST_2",
      "RepetitionTime": 2000.0,
      "Rows": 384,
      "SAR": 0.1325367876073,
      "SamplesPerPixel": 1,
      "ScanOptions": "FS",
      "ScanningSequence": "EP",
      "SequenceName": "*epfid2d1_64",
      "SequenceVariant": "SK",
      "SeriesDescription": "EPI_DGIST_2",
      "SeriesNumber": 3,
      "SeriesTime": "141802.226000",
      "SliceLocation": -69.355561501527,
      "SliceThickness": 4.0,
      "SmallestImagePixelValue": 0,
      "SoftwareVersions": "syngo MR D13C",
      "SpacingBetweenSlices": 4.7999998390279,
      "SpecificCharacterSet": "ISO_IR 100",
      "StudyID": "1",
      "StudyTime": "135117.314000",
      "TimeOfLastCalibration": ["123723.000000", "123723.000000"],
      "TransmitCoilName": "Body",
      "VariableFlipAngleFlag": "N",
      "WindowCenterWidthExplanation": "Algo1",
      "dBdt": 0.0},
    "slices": {}
  },
  "time": {
    "samples": {
      "AcquisitionNumber": [1, 2, 3, 4, 5, 6, 7, 8, 9, 10, 11, 12, 13, 14, 15, 16, 17, 18, 19, 20, 21, 22, 23, 24, 25, 26, 27, 28, 29, 30, 31, 32, 33, 34, 35, 36, 37, 38, 39, 40, 41, 42, 43, 44, 45, 46, 47, 48, 49, 50, 51, 52, 53, 54, 55, 56, 57, 58, 59, 60, 61, 62, 63, 64, 65, 66, 67, 68, 69, 70, 71, 72, 73, 74, 75, 76, 77, 78, 79, 80, 81, 82, 83, 84, 85, 86, 87, 88, 89, 90, 91, 92, 93, 94, 95, 96, 97, 98, 99, 100, 101, 102, 103, 104, 105, 106, 107, 108, 109, 110, 111, 112, 113, 114, 115, 116, 117, 118, 119, 120, 121, 122, 123, 124, 125, 126, 127, 128, 129, 130, 131, 132, 133, 134, 135, 136, 137, 138, 139, 140, 141, 142, 143, 144, 145, 146, 147, 148, 149, 150, 151, 152, 153, 154, 155, 156, 157, 158, 159, 160, 161, 162, 163, 164, 165, 166, 167, 168, 169, 170, 171, 172, 173, 174, 175, 176, 177, 178, 179, 180, 181, 182, 183, 184, 185, 186, 187, 188, 189, 190, 191, 192, 193, 194, 195, 196, 197, 198, 199, 200, 201, 202, 203, 204, 205, 206, 207, 208, 209, 210, 211, 212, 213, 214, 215, 216, 217, 218, 219, 220, 221, 222, 223, 224, 225, 226, 227, 228, 229, 230, 231, 232, 233, 234, 235, 236, 237, 238, 239, 240, 241, 242, 243, 244, 245, 246, 247, 248, 249, 250, 251, 252, 253, 254, 255, 256, 257, 258, 259, 260, 261, 262, 263, 264, 265, 266, 267, 268, 269, 270, 271, 272, 273, 274, 275, 276, 277, 278, 279, 280, 281, 282, 283, 284, 285, 286, 287, 288, 289, 290, 291, 292, 293, 294, 295, 296, 297, 298, 299, 300, 301, 302, 303, 304, 305, 306, 307, 308, 309, 310, 311, 312, 313, 314, 315, 316, 317, 318, 319, 320, 321, 322, 323, 324, 325, 326, 327, 328, 329, 330, 331, 332, 333, 334, 335, 336, 337, 338, 339, 340, 341, 342, 343, 344, 345, 346, 347, 348, 349, 350, 351, 352, 353, 354, 355, 356, 357, 358, 359, 360, 361, 362, 363, 364],
      "AcquisitionTime": ["141721.830000", "141723.830000", "141725.830000", "141727.830000", "141729.830000", "141731.830000", "141733.830000", "141735.830000", "141737.830000", "141739.830000", "141741.830000", "141743.830000", "141745.830000", "141747.830000", "141749.830000", "141751.830000", "141753.830000", "141755.830000", "141757.830000", "141759.830000", "141801.830000", "141803.830000", "141805.830000", "141807.830000", "141809.830000", "141811.830000", "141813.830000", "141815.830000", "141817.830000", "141819.830000", "141821.830000", "141823.830000", "141825.830000", "141827.830000", "141829.830000", "141831.830000", "141833.830000", "141835.830000", "141837.830000", "141839.830000", "141841.830000", "141843.830000", "141845.830000", "141847.830000", "141849.830000", "141851.830000", "141853.830000", "141855.830000", "141857.830000", "141859.830000", "141901.830000", "141903.830000", "141905.830000", "141907.830000", "141909.830000", "141911.830000", "141913.830000", "141915.830000", "141917.830000", "141919.830000", "141921.830000", "141923.830000", "141925.830000", "141927.830000", "141929.830000", "141931.830000", "141933.830000", "141935.830000", "141937.830000", "141939.830000", "141941.830000", "141943.830000", "141945.830000", "141947.830000", "141949.830000", "141951.830000", "141953.830000", "141955.830000", "141957.830000", "141959.830000", "142001.830000", "142003.830000", "142005.830000", "142007.830000", "142009.830000", "142011.830000", "142013.830000", "142015.830000", "142017.830000", "142019.830000", "142021.832500", "142023.832500", "142025.832500", "142027.832500", "142029.832500", "142031.832500", "142033.832500", "142035.832500", "142037.832500", "142039.832500", "142041.832500", "142043.832500", "142045.832500", "142047.832500", "142049.832500", "142051.832500", "142053.832500", "142055.832500", "142057.832500", "142059.832500", "142101.832500", "142103.832500", "142105.832500", "142107.832500", "142109.832500", "142111.832500", "142113.832500", "142115.832500", "142117.832500", "142119.832500", "142121.832500", "142123.832500", "142125.832500", "142127.832500", "142129.832500", "142131.832500", "142133.832500", "142135.832500", "142137.832500", "142139.832500", "142141.832500", "142143.832500", "142145.832500", "142147.832500", "142149.832500", "142151.832500", "142153.832500", "142155.832500", "142157.832500", "142159.832500", "142201.832500", "142203.832500", "142205.832500", "142207.832500", "142209.832500", "142211.832500", "142213.832500", "142215.832500", "142217.832500", "142219.832500", "142221.832500", "142223.832500", "142225.832500", "142227.832500", "142229.832500", "142231.832500", "142233.832500", "142235.832500", "142237.832500", "142239.832500", "142241.832500", "142243.832500", "142245.832500", "142247.832500", "142249.832500", "142251.832500", "142253.832500", "142255.832500", "142257.832500", "142259.832500", "142301.832500", "142303.832500", "142305.832500", "142307.832500", "142309.832500", "142311.832500", "142313.832500", "142315.832500", "142317.832500", "142319.832500", "142321.832500", "142323.832500", "142325.832500", "142327.832500", "142329.832500", "142331.832500", "142333.832500", "142335.832500", "142337.832500", "142339.832500", "142341.832500", "142343.832500", "142345.832500", "142347.832500", "142349.832500", "142351.832500", "142353.832500", "142355.832500", "142357.832500", "142359.832500", "142401.832500", "142403.832500", "142405.832500", "142407.832500", "142409.832500", "142411.832500", "142413.832500", "142415.832500", "142417.832500", "142419.832500", "142421.832500", "142423.832500", "142425.832500", "142427.832500", "142429.832500", "142431.832500", "142433.832500", "142435.832500", "142437.832500", "142439.832500", "142441.832500", "142443.832500", "142445.832500", "142447.832500", "142449.832500", "142451.832500", "142453.832500", "142455.832500", "142457.832500", "142459.832500", "142501.832500", "142503.832500", "142505.832500", "142507.832500", "142509.832500", "142511.832500", "142513.832500", "142515.832500", "142517.832500", "142519.832500", "142521.832500", "142523.832500", "142525.832500", "142527.832500", "142529.832500", "142531.832500", "142533.832500", "142535.832500", "142537.832500", "142539.832500", "142541.832500", "142543.832500", "142545.832500", "142547.832500", "142549.832500", "142551.832500", "142553.832500", "142555.832500", "142557.832500", "142559.832500", "142601.832500", "142603.832500", "142605.832500", "142607.832500", "142609.832500", "142611.832500", "142613.832500", "142615.832500", "142617.832500", "142619.832500", "142621.832500", "142623.832500", "142625.832500", "142627.832500", "142629.832500", "142631.832500", "142633.832500", "142635.832500", "142637.832500", "142639.832500", "142641.832500", "142643.832500", "142645.832500", "142647.832500", "142649.832500", "142651.832500", "142653.832500", "142655.832500", "142657.832500", "142659.832500", "142701.832500", "142703.832500", "142705.832500", "142707.832500", "142709.832500", "142711.832500", "142713.832500", "142715.832500", "142717.832500", "142719.832500", "142721.832500", "142723.832500", "142725.832500", "142727.832500", "142729.832500", "142731.832500", "142733.832500", "142735.832500", "142737.832500", "142739.832500", "142741.832500", "142743.832500", "142745.832500", "142747.832500", "142749.832500", "142751.832500", "142753.832500", "142755.832500", "142757.832500", "142759.832500", "142801.832500", "142803.832500", "142805.832500", "142807.832500", "142809.832500", "142811.832500", "142813.832500", "142815.832500", "142817.832500", "142819.832500", "142821.832500", "142823.832500", "142825.832500", "142827.832500", "142829.832500", "142831.832500", "142833.832500", "142835.832500", "142837.832500", "142839.832500", "142841.835000", "142843.835000", "142845.835000", "142847.835000", "142849.835000", "142851.835000", "142853.835000", "142855.835000", "142857.835000", "142859.835000", "142901.835000", "142903.835000", "142905.835000", "142907.835000", "142909.835000", "142911.835000", "142913.835000", "142915.835000", "142917.835000", "142919.835000", "142921.835000", "142923.835000", "142925.835000", "142927.835000"],
      "ContentTime": ["141802.229000", "141802.232000", "141802.234000", "141802.236000", "141802.238000", "141802.240000", "141802.256000", "141802.257000", "141802.259000", "141802.261000", "141802.263000", "141802.265000", "141802.267000", "141802.269000", "141802.271000", "141802.273000", "141802.275000", "141802.277000", "141802.279000", "141802.281000", "141842.210000", "141842.212000", "141842.214000", "141842.216000", "141842.218000", "141842.220000", "141842.222000", "141842.224000", "141842.226000", "141842.228000", "141842.230000", "141842.232000", "141842.234000", "141842.236000", "141842.238000", "141842.240000", "141842.242000", "141842.244000", "141842.245000", "141842.247000", "141922.210000", "141922.212000", "141922.214000", "141922.216000", "141922.218000", "141922.220000", "141922.222000", "141922.224000", "141922.226000", "141922.228000", "141922.230000", "141922.232000", "141922.234000", "141922.236000", "141922.238000", "141922.240000", "141922.242000", "141922.244000", "141922.246000", "141922.247000", "142002.210000", "142002.212000", "142002.214000", "142002.216000", "142002.218000", "142002.220000", "142002.222000", "142002.224000", "142002.226000", "142002.228000", "142002.230000", "142002.232000", "142002.234000", "142002.236000", "142002.238000", "142002.240000", "142002.242000", "142002.244000", "142002.246000", "142002.248000", "142042.210000", "142042.212000", "142042.214000", "142042.216000", "142042.218000", "142042.220000", "142042.222000", "142042.224000", "142042.226000", "142042.228000", "142042.230000", "142042.232000", "142042.234000", "142042.236000", "142042.238000", "142042.240000", "142042.242000", "142042.244000", "142042.246000", "142042.248000", "142122.210000", "142122.212000", "142122.214000", "142122.216000", "142122.218000", "142122.220000", "142122.222000", "142122.224000", "142122.226000", "142122.228000", "142122.230000", "142122.232000", "142122.234000", "142122.236000", "142122.238000", "142122.240000", "142122.242000", "142122.244000", "142122.246000", "142122.248000", "142202.210000", "142202.212000", "142202.214000", "142202.216000", "142202.218000", "142202.220000", "142202.222000", "142202.224000", "142202.226000", "142202.228000", "142202.230000", "142202.232000", "142202.234000", "142202.236000", "142202.238000", "142202.240000", "142202.242000", "142202.244000", "142202.246000", "142202.248000", "142242.210000", "142242.212000", "142242.214000", "142242.216000", "142242.218000", "142242.220000", "142242.222000", "142242.224000", "142242.226000", "142242.228000", "142242.230000", "142242.232000", "142242.234000", "142242.236000", "142242.238000", "142242.240000", "142242.242000", "142242.244000", "142242.246000", "142242.248000", "142322.210000", "142322.212000", "142322.214000", "142322.216000", "142322.218000", "142322.220000", "142322.222000", "142322.224000", "142322.226000", "142322.228000", "142322.230000", "142322.232000", "142322.234000", "142322.236000", "142322.238000", "142322.240000", "142322.242000", "142322.244000", "142322.246000", "142322.248000", "142342.210000", "142342.212000", "142342.214000", "142342.216000", "142342.218000", "142342.220000", "142342.222000", "142342.224000", "142342.226000", "142342.228000", "142422.210000", "142422.213000", "142422.214000", "142422.216000", "142422.218000", "142422.220000", "142422.222000", "142422.224000", "142422.226000", "142422.228000", "142422.230000", "142422.232000", "142422.234000", "142422.236000", "142422.238000", "142422.240000", "142422.242000", "142422.244000", "142422.246000", "142422.248000", "142502.210000", "142502.212000", "142502.214000", "142502.216000", "142502.218000", "142502.220000", "142502.222000", "142502.224000", "142502.226000", "142502.228000", "142502.230000", "142502.232000", "142502.234000", "142502.236000", "142502.238000", "142502.240000", "142502.242000", "142502.244000", "142502.246000", "142502.248000", "142542.210000", "142542.212000", "142542.214000", "142542.216000", "142542.218000", "142542.220000", "142542.222000", "142542.224000", "142542.226000", "142542.228000", "142542.230000", "142542.232000", "142542.234000", "142542.236000", "142542.238000", "142542.240000", "142542.242000", "142542.244000", "142542.246000", "142542.248000", "142622.210000", "142622.212000", "142622.214000", "142622.216000", "142622.218000", "142622.220000", "142622.222000", "142622.224000", "142622.226000", "142622.228000", "142622.230000", "142622.232000", "142622.234000", "142622.236000", "142622.238000", "142622.240000", "142622.242000", "142622.244000", "142622.245000", "142622.247000", "142702.210000", "142702.212000", "142702.214000", "142702.216000", "142702.218000", "142702.220000", "142702.222000", "142702.224000", "142702.226000", "142702.228000", "142702.230000", "142702.232000", "142702.234000", "142702.236000", "142702.238000", "142702.240000", "142702.242000", "142702.244000", "142702.246000", "142702.248000", "142742.210000", "142742.212000", "142742.214000", "142742.216000", "142742.218000", "142742.220000", "142742.222000", "142742.233000", "142742.235000", "142742.237000", "142742.239000", "142742.241000", "142742.243000", "142742.245000", "142742.247000", "142742.249000", "142742.251000", "142742.253000", "142742.255000", "142742.257000", "142822.210000", "142822.212000", "142822.214000", "142822.216000", "142822.218000", "142822.220000", "142822.222000", "142822.224000", "142822.226000", "142822.228000", "142822.230000", "142822.232000", "142822.234000", "142822.236000", "142822.238000", "142822.240000", "142822.242000", "142822.244000", "142822.246000", "142822.248000", "142902.210000", "142902.212000", "142902.214000", "142902.216000", "142902.218000", "142902.220000", "142902.222000", "142902.224000", "142902.226000", "142902.228000", "142902.230000", "142902.232000", "142902.234000", "142902.236000", "142902.238000", "142902.240000", "142902.242000", "142902.244000", "142902.246000", "142902.248000", "142928.964000", "142928.966000", "142928.968000", "142928.970000", "142928.972000", "142928.974000", "142928.976000", "142928.978000", "142928.980000", "142928.982000", "142928.984000", "142928.986000", "142928.988000", "142928.990000"],
      "InstanceCreationTime": ["141802.229000", "141802.232000", "141802.234000", "141802.236000", "141802.238000", "141802.240000", "141802.256000", "141802.257000", "141802.259000", "141802.261000", "141802.263000", "141802.265000", "141802.267000", "141802.269000", "141802.271000", "141802.273000", "141802.275000", "141802.277000", "141802.279000", "141802.281000", "141842.210000", "141842.212000", "141842.214000", "141842.216000", "141842.218000", "141842.220000", "141842.222000", "141842.224000", "141842.226000", "141842.228000", "141842.230000", "141842.232000", "141842.234000", "141842.236000", "141842.238000", "141842.240000", "141842.242000", "141842.244000", "141842.245000", "141842.247000", "141922.210000", "141922.212000", "141922.214000", "141922.216000", "141922.218000", "141922.220000", "141922.222000", "141922.224000", "141922.226000", "141922.228000", "141922.230000", "141922.232000", "141922.234000", "141922.236000", "141922.238000", "141922.240000", "141922.242000", "141922.244000", "141922.246000", "141922.247000", "142002.210000", "142002.212000", "142002.214000", "142002.216000", "142002.218000", "142002.220000", "142002.222000", "142002.224000", "142002.226000", "142002.228000", "142002.230000", "142002.232000", "142002.234000", "142002.236000", "142002.238000", "142002.240000", "142002.242000", "142002.244000", "142002.246000", "142002.248000", "142042.210000", "142042.212000", "142042.214000", "142042.216000", "142042.218000", "142042.220000", "142042.222000", "142042.224000", "142042.226000", "142042.228000", "142042.230000", "142042.232000", "142042.234000", "142042.236000", "142042.238000", "142042.240000", "142042.242000", "142042.244000", "142042.246000", "142042.248000", "142122.210000", "142122.212000", "142122.214000", "142122.216000", "142122.218000", "142122.220000", "142122.222000", "142122.224000", "142122.226000", "142122.228000", "142122.230000", "142122.232000", "142122.234000", "142122.236000", "142122.238000", "142122.240000", "142122.242000", "142122.244000", "142122.246000", "142122.248000", "142202.210000", "142202.212000", "142202.214000", "142202.216000", "142202.218000", "142202.220000", "142202.222000", "142202.224000", "142202.226000", "142202.228000", "142202.230000", "142202.232000", "142202.234000", "142202.236000", "142202.238000", "142202.240000", "142202.242000", "142202.244000", "142202.246000", "142202.248000", "142242.210000", "142242.212000", "142242.214000", "142242.216000", "142242.218000", "142242.220000", "142242.222000", "142242.224000", "142242.226000", "142242.228000", "142242.230000", "142242.232000", "142242.234000", "142242.236000", "142242.238000", "142242.240000", "142242.242000", "142242.244000", "142242.246000", "142242.248000", "142322.210000", "142322.212000", "142322.214000", "142322.216000", "142322.218000", "142322.220000", "142322.222000", "142322.224000", "142322.226000", "142322.228000", "142322.230000", "142322.232000", "142322.234000", "142322.236000", "142322.238000", "142322.240000", "142322.242000", "142322.244000", "142322.246000", "142322.248000", "142342.210000", "142342.212000", "142342.214000", "142342.216000", "142342.218000", "142342.220000", "142342.222000", "142342.224000", "142342.226000", "142342.228000", "142422.210000", "142422.213000", "142422.214000", "142422.216000", "142422.218000", "142422.220000", "142422.222000", "142422.224000", "142422.226000", "142422.228000", "142422.230000", "142422.232000", "142422.234000", "142422.236000", "142422.238000", "142422.240000", "142422.242000", "142422.244000", "142422.246000", "142422.248000", "142502.210000", "142502.212000", "142502.214000", "142502.216000", "142502.218000", "142502.220000", "142502.222000", "142502.224000", "142502.226000", "142502.228000", "142502.230000", "142502.232000", "142502.234000", "142502.236000", "142502.238000", "142502.240000", "142502.242000", "142502.244000", "142502.246000", "142502.248000", "142542.210000", "142542.212000", "142542.214000", "142542.216000", "142542.218000", "142542.220000", "142542.222000", "142542.224000", "142542.226000", "142542.228000", "142542.230000", "142542.232000", "142542.234000", "142542.236000", "142542.238000", "142542.240000", "142542.242000", "142542.244000", "142542.246000", "142542.248000", "142622.210000", "142622.212000", "142622.214000", "142622.216000", "142622.218000", "142622.220000", "142622.222000", "142622.224000", "142622.226000", "142622.228000", "142622.230000", "142622.232000", "142622.234000", "142622.236000", "142622.238000", "142622.240000", "142622.242000", "142622.244000", "142622.245000", "142622.247000", "142702.210000", "142702.212000", "142702.214000", "142702.216000", "142702.218000", "142702.220000", "142702.222000", "142702.224000", "142702.226000", "142702.228000", "142702.230000", "142702.232000", "142702.234000", "142702.236000", "142702.238000", "142702.240000", "142702.242000", "142702.244000", "142702.246000", "142702.248000", "142742.210000", "142742.212000", "142742.214000", "142742.216000", "142742.218000", "142742.220000", "142742.222000", "142742.233000", "142742.235000", "142742.237000", "142742.239000", "142742.241000", "142742.243000", "142742.245000", "142742.247000", "142742.249000", "142742.251000", "142742.253000", "142742.255000", "142742.257000", "142822.210000", "142822.212000", "142822.214000", "142822.216000", "142822.218000", "142822.220000", "142822.222000", "142822.224000", "142822.226000", "142822.228000", "142822.230000", "142822.232000", "142822.234000", "142822.236000", "142822.238000", "142822.240000", "142822.242000", "142822.244000", "142822.246000", "142822.248000", "142902.210000", "142902.212000", "142902.214000", "142902.216000", "142902.218000", "142902.220000", "142902.222000", "142902.224000", "142902.226000", "142902.228000", "142902.230000", "142902.232000", "142902.234000", "142902.236000", "142902.238000", "142902.240000", "142902.242000", "142902.244000", "142902.246000", "142902.248000", "142928.964000", "142928.966000", "142928.968000", "142928.970000", "142928.972000", "142928.974000", "142928.976000", "142928.978000", "142928.980000", "142928.982000", "142928.984000", "142928.986000", "142928.988000", "142928.990000"],
      "InstanceNumber": [1, 2, 3, 4, 5, 6, 7, 8, 9, 10, 11, 12, 13, 14, 15, 16, 17, 18, 19, 20, 21, 22, 23, 24, 25, 26, 27, 28, 29, 30, 31, 32, 33, 34, 35, 36, 37, 38, 39, 40, 41, 42, 43, 44, 45, 46, 47, 48, 49, 50, 51, 52, 53, 54, 55, 56, 57, 58, 59, 60, 61, 62, 63, 64, 65, 66, 67, 68, 69, 70, 71, 72, 73, 74, 75, 76, 77, 78, 79, 80, 81, 82, 83, 84, 85, 86, 87, 88, 89, 90, 91, 92, 93, 94, 95, 96, 97, 98, 99, 100, 101, 102, 103, 104, 105, 106, 107, 108, 109, 110, 111, 112, 113, 114, 115, 116, 117, 118, 119, 120, 121, 122, 123, 124, 125, 126, 127, 128, 129, 130, 131, 132, 133, 134, 135, 136, 137, 138, 139, 140, 141, 142, 143, 144, 145, 146, 147, 148, 149, 150, 151, 152, 153, 154, 155, 156, 157, 158, 159, 160, 161, 162, 163, 164, 165, 166, 167, 168, 169, 170, 171, 172, 173, 174, 175, 176, 177, 178, 179, 180, 181, 182, 183, 184, 185, 186, 187, 188, 189, 190, 191, 192, 193, 194, 195, 196, 197, 198, 199, 200, 201, 202, 203, 204, 205, 206, 207, 208, 209, 210, 211, 212, 213, 214, 215, 216, 217, 218, 219, 220, 221, 222, 223, 224, 225, 226, 227, 228, 229, 230, 231, 232, 233, 234, 235, 236, 237, 238, 239, 240, 241, 242, 243, 244, 245, 246, 247, 248, 249, 250, 251, 252, 253, 254, 255, 256, 257, 258, 259, 260, 261, 262, 263, 264, 265, 266, 267, 268, 269, 270, 271, 272, 273, 274, 275, 276, 277, 278, 279, 280, 281, 282, 283, 284, 285, 286, 287, 288, 289, 290, 291, 292, 293, 294, 295, 296, 297, 298, 299, 300, 301, 302, 303, 304, 305, 306, 307, 308, 309, 310, 311, 312, 313, 314, 315, 316, 317, 318, 319, 320, 321, 322, 323, 324, 325, 326, 327, 328, 329, 330, 331, 332, 333, 334, 335, 336, 337, 338, 339, 340, 341, 342, 343, 344, 345, 346, 347, 348, 349, 350, 351, 352, 353, 354, 355, 356, 357, 358, 359, 360, 361, 362, 363, 364],
      "LargestImagePixelValue": [3078, 3024, 3001, 3002, 2988, 2958, 2968, 2938, 2964, 2967, 2935, 2975, 2926, 2945, 2960, 2958, 2947, 2945, 2918, 2951, 2918, 2942, 2949, 2922, 2934, 2958, 2941, 2922, 2958, 2955, 2922, 2971, 2952, 2966, 2987, 2955, 2951, 2928, 2954, 2933, 2947, 2966, 2956, 2933, 2927, 2951, 2918, 2946, 2940, 2941, 2933, 2966, 2959, 2935, 2938, 2926, 2945, 2918, 2942, 2932, 2947, 2976, 2965, 2956, 2976, 2966, 2940, 2971, 2961, 2954, 2936, 2969, 2959, 2955, 2934, 2944, 2972, 2974, 2956, 2963, 2924, 2947, 2945, 2938, 2953, 2963, 2957, 2933, 2973, 2946, 2968, 2969, 2966, 2976, 2979, 2970, 2966, 2944, 2959, 2957, 2937, 2932, 2978, 2942, 2950, 2956, 2931, 2954, 2953, 2951, 2946, 2972, 2960, 2963, 2958, 2953, 2972, 2941, 2949, 2960, 2935, 2981, 2954, 2983, 2951, 2958, 2952, 2952, 2955, 2951, 2956, 2960, 2951, 2958, 2952, 2952, 2948, 2957, 2957, 2965, 2955, 2972, 2955, 2953, 2964, 2969, 2945, 2959, 2972, 2951, 2962, 2952, 2962, 3012, 2972, 2981, 2957, 2958, 2977, 2954, 2968, 2958, 2931, 2967, 2960, 2935, 2939, 2949, 2941, 2935, 2953, 2946, 2934, 2956, 2956, 2947, 2956, 2945, 2938, 2953, 2939, 2922, 2950, 2985, 2970, 2974, 2952, 2960, 2930, 2957, 2950, 2922, 2947, 2947, 2940, 2929, 2936, 2951, 2952, 2943, 2947, 2963, 2955, 2954, 2932, 2940, 2969, 2931, 2938, 2962, 2949, 2938, 2955, 2974, 2987, 2954, 2965, 2968, 2959, 2955, 2942, 2959, 2962, 2951, 2950, 2930, 2942, 2954, 2938, 2929, 2936, 2937, 2938, 2961, 2957, 2960, 2966, 2961, 2952, 2933, 2922, 2932, 2947, 2958, 2952, 2957, 2946, 2942, 2913, 2935, 2936, 2939, 2929, 2950, 2942, 2916, 2926, 2966, 2940, 2966, 2920, 2958, 2951, 2946, 2971, 2951, 2972, 2964, 2964, 2964, 2945, 2934, 2957, 2956, 2934, 2955, 2940, 2929, 2956, 2933, 2949, 2934, 2943, 2950, 2916, 2948, 2956, 2918, 2942, 2935, 2920, 2956, 2936, 2909, 2943, 2925, 2954, 2931, 2921, 2939, 2943, 2948, 2949, 2932, 2952, 2952, 2936, 2912, 2933, 2931, 2942, 2935, 2951, 2974, 2942, 2963, 2973, 2947, 2990, 2966, 2940, 2959, 2963, 2944, 2954, 2943, 2949, 2945, 2932, 2938, 2915, 2946, 2966, 2941, 2950, 2934, 2947, 2939, 2968, 2950, 2969, 2947, 2938, 2918, 2951, 2948, 2932, 2933, 2933, 2946, 2927, 2944, 2912, 2931, 2918, 2915, 2909, 2912, 2914, 2933, 2925, 2933, 2936, 2953],
