{
  "AcquisitionMatrixPE": 64,
  "AcquisitionNumber": 1,
  "AcquisitionTime": "10:14:33.412500",
  "BandwidthPerPixelPhaseEncode": 25.202,
  "BaseResolution": 64,
  "BodyPartExamined": "BRAIN",
  "ConsistencyInfo": "N4_VD13C_LATEST_20121124",
  "ConversionSoftware": "dcm2niix",
  "ConversionSoftwareVersion": "v1.0.20201102",
  "DerivedVendorReportedEchoSpacing": 0.00061999,
  "DeviceSerialNumber": "45758",
  "DwellTime": 4.3e-06,
  "EchoTime": 0.03,
  "EchoTrainLength": 64,
  "EffectiveEchoSpacing": 0.00061999,
  "FlipAngle": 90,
  "ImageOrientationPatientDICOM": [0.99992, 0.00131466, -0.0126166, -0.00174519, 0.999414, -0.0341738],
  "ImageType": [
    "ORIGINAL",
    "PRIMARY",
    "M",
    "ND",
    "MOSAIC"
],
  "ImagingFrequency": 123.2,
  "InPlanePhaseEncodingDirectionDICOM": "ROW",
  "InstitutionAddress": "Street StreetNo,City /652E4B/,District,KR,ZIP",
  "InstitutionName": "DGMIF",
  "InstitutionalDepartmentName": "Department",
  "MRAcquisitionType": "2D",
  "MagneticFieldStrength": 3,
  "Manufacturer": "Siemens",
  "ManufacturersModelName": "Skyra",
  "Modality": "MR",
  "PartialFourier": 1,
  "PatientPosition": "HFS",
  "PercentPhaseFOV": 100,
  "PercentSampling": 100,
  "PhaseEncodingDirection": "i",
  "PhaseEncodingSteps": 64,
  "PhaseResolution": 1,
  "PixelBandwidth": 1815,
  "ProcedureStepDescription": "DGMIF^DGIST_Jeon",
  "ProtocolName": "EPI_DGIST_3",
  "PulseSequenceDetails": "%SiemensSeq%\\ep2d_bold",
  "ReceiveCoilActiveElements": "HC1-6",
  "ReceiveCoilName": "HeadNeck_64",
  "ReconMatrixPE": 64,
  "RepetitionTime": 2,
  "SAR": 0.100114,
  "ScanOptions": "FS",
  "ScanningSequence": "EP",
  "SequenceName": "*epfid2d1_64",
  "SequenceVariant": "SK",
  "SeriesDescription": "EPI_DGIST_3",
  "SeriesNumber": 4,
  "ShimSetting": [-9711, -13608, -8083, 287, -248, 60, -352, -169],
  "SliceThickness": 4,
  "SliceTiming": [0.9875, 0, 1.055, 0.065, 1.12, 0.13, 1.1875, 0.1975, 1.2525, 0.2625, 1.3175, 0.3275, 1.385, 0.395, 1.45, 0.46, 1.5175, 0.5275, 1.5825, 0.5925, 1.6475, 0.6575, 1.715, 0.725, 1.78, 0.79, 1.8475, 0.8575, 1.9125, 0.9225],
  "SoftwareVersions": "syngo MR D13C",
  "SpacingBetweenSlices": 4.8,
  "StationName": "AWP45758",
  "TaskName": "asrt",
  "TotalReadoutTime": 0.0390594,
  "TxRefAmp": 296.385,
  "dcmmeta_affine": [
    [-2.999758720397949, -0.005235570482909679, -0.06030861288309097, 95.28504180908203],
    [-0.003943988122045994, 2.9982430934906006, -0.16412654519081116, -118.28590393066406],
    [-0.037849828600883484, 0.10252128541469574, 4.79681396484375, -54.94788360595703],
    [0.0, 0.0, 0.0, 1.0]
],
  "dcmmeta_reorient_transform": [
    [0.0, -1.0, 0.0, 63.0],
    [1.0, 0.0, 0.0, 0.0],
    [0.0, 0.0, 1.0, 0.0],
    [0.0, 0.0, 0.0, 1.0]
],
  "dcmmeta_shape": [64, 64, 30, 364],
  "dcmmeta_slice_dim": 2,
  "dcmmeta_version": 0.6,
  "global": {
    "const": {
      "AcquisitionMatrix": [0, 64, 64, 0],
      "AngioFlag": "N",
      "BitsAllocated": 16,
      "BitsStored": 12,
      "BodyPartExamined": "BRAIN",
      "Columns": 384,
      "EchoNumbers": 1,
      "EchoTime": 30.0,
      "EchoTrainLength": 64,
      "FlipAngle": 90.0,
      "HighBit": 11,
      "ImageOrientationPatient": [0.99991954316999, 0.00131466265257, -0.0126166100368, -0.0017451901901, 0.99941438271611, -0.034173760861],
      "ImagePositionPatient": [-574.07888853236, -550.95335260245, -26.029665247104],
      "ImageType": [
        "ORIGINAL",
        "PRIMARY",
        "M",
        "ND",
        "MOSAIC"
],
      "ImagedNucleus": "1H",
      "ImagingFrequency": 123.20017,
      "InPlanePhaseEncodingDirection": "ROW",
      "MRAcquisitionType": "2D",
      "MagneticFieldStrength": 3.0,
      "Manufacturer": "SIEMENS",
      "ManufacturerModelName": "Skyra",
      "Modality": "MR",
      "NumberOfAverages": 1.0,
      "NumberOfPhaseEncodingSteps": 64,
      "PercentPhaseFieldOfView": 100.0,
      "PercentSampling": 100.0,
      "PerformedProcedureStepStartTime": "093545.478000",
      "PhotometricInterpretation": "MONOCHROME2",
      "PixelBandwidth": 1815.0,
      "PixelRepresentation": 0,
      "PixelSpacing": [3.0, 3.0],
      "ProtocolName": "EPI_DGIST_3",
      "RepetitionTime": 2000.0,
      "Rows": 384,
      "SAR": 0.10011391509152,
      "SamplesPerPixel": 1,
      "ScanOptions": "FS",
      "ScanningSequence": "EP",
      "SequenceName": "*epfid2d1_64",
      "SequenceVariant": "SK",
      "SeriesDescription": "EPI_DGIST_3",
      "SeriesNumber": 4,
      "SeriesTime": "101440.808000",
      "SliceLocation": -52.064049133937,
      "SliceThickness": 4.0,
      "SmallestImagePixelValue": 0,
      "SoftwareVersions": "syngo MR D13C",
      "SpacingBetweenSlices": 4.7999998822889,
      "SpecificCharacterSet": "ISO_IR 100",
      "StudyID": "1",
      "StudyTime": "093545.396000",
      "TimeOfLastCalibration": ["123723.000000", "123723.000000"],
      "TransmitCoilName": "Body",
      "VariableFlipAngleFlag": "N",
      "WindowCenterWidthExplanation": "Algo1",
      "dBdt": 0.0},
    "slices": {}
  },
  "time": {
    "samples": {
      "AcquisitionNumber": [1, 2, 3, 4, 5, 6, 7, 8, 9, 10, 11, 12, 13, 14, 15, 16, 17, 18, 19, 20, 21, 22, 23, 24, 25, 26, 27, 28, 29, 30, 31, 32, 33, 34, 35, 36, 37, 38, 39, 40, 41, 42, 43, 44, 45, 46, 47, 48, 49, 50, 51, 52, 53, 54, 55, 56, 57, 58, 59, 60, 61, 62, 63, 64, 65, 66, 67, 68, 69, 70, 71, 72, 73, 74, 75, 76, 77, 78, 79, 80, 81, 82, 83, 84, 85, 86, 87, 88, 89, 90, 91, 92, 93, 94, 95, 96, 97, 98, 99, 100, 101, 102, 103, 104, 105, 106, 107, 108, 109, 110, 111, 112, 113, 114, 115, 116, 117, 118, 119, 120, 121, 122, 123, 124, 125, 126, 127, 128, 129, 130, 131, 132, 133, 134, 135, 136, 137, 138, 139, 140, 141, 142, 143, 144, 145, 146, 147, 148, 149, 150, 151, 152, 153, 154, 155, 156, 157, 158, 159, 160, 161, 162, 163, 164, 165, 166, 167, 168, 169, 170, 171, 172, 173, 174, 175, 176, 177, 178, 179, 180, 181, 182, 183, 184, 185, 186, 187, 188, 189, 190, 191, 192, 193, 194, 195, 196, 197, 198, 199, 200, 201, 202, 203, 204, 205, 206, 207, 208, 209, 210, 211, 212, 213, 214, 215, 216, 217, 218, 219, 220, 221, 222, 223, 224, 225, 226, 227, 228, 229, 230, 231, 232, 233, 234, 235, 236, 237, 238, 239, 240, 241, 242, 243, 244, 245, 246, 247, 248, 249, 250, 251, 252, 253, 254, 255, 256, 257, 258, 259, 260, 261, 262, 263, 264, 265, 266, 267, 268, 269, 270, 271, 272, 273, 274, 275, 276, 277, 278, 279, 280, 281, 282, 283, 284, 285, 286, 287, 288, 289, 290, 291, 292, 293, 294, 295, 296, 297, 298, 299, 300, 301, 302, 303, 304, 305, 306, 307, 308, 309, 310, 311, 312, 313, 314, 315, 316, 317, 318, 319, 320, 321, 322, 323, 324, 325, 326, 327, 328, 329, 330, 331, 332, 333, 334, 335, 336, 337, 338, 339, 340, 341, 342, 343, 344, 345, 346, 347, 348, 349, 350, 351, 352, 353, 354, 355, 356, 357, 358, 359, 360, 361, 362, 363, 364],
      "AcquisitionTime": ["101433.412500", "101435.412500", "101437.412500", "101439.412500", "101441.412500", "101443.412500", "101445.412500", "101447.412500", "101449.412500", "101451.412500", "101453.412500", "101455.412500", "101457.415000", "101459.415000", "101501.415000", "101503.415000", "101505.415000", "101507.415000", "101509.415000", "101511.415000", "101513.415000", "101515.415000", "101517.415000", "101519.415000", "101521.415000", "101523.415000", "101525.415000", "101527.415000", "101529.415000", "101531.415000", "101533.415000", "101535.415000", "101537.415000", "101539.415000", "101541.415000", "101543.415000", "101545.415000", "101547.415000", "101549.415000", "101551.415000", "101553.415000", "101555.415000", "101557.415000", "101559.415000", "101601.415000", "101603.415000", "101605.415000", "101607.415000", "101609.415000", "101611.415000", "101613.415000", "101615.415000", "101617.415000", "101619.415000", "101621.415000", "101623.415000", "101625.415000", "101627.415000", "101629.415000", "101631.415000", "101633.415000", "101635.415000", "101637.415000", "101639.415000", "101641.415000", "101643.415000", "101645.415000", "101647.415000", "101649.415000", "101651.415000", "101653.415000", "101655.415000", "101657.415000", "101659.415000", "101701.415000", "101703.415000", "101705.415000", "101707.415000", "101709.415000", "101711.415000", "101713.415000", "101715.415000", "101717.415000", "101719.415000", "101721.415000", "101723.415000", "101725.415000", "101727.415000", "101729.415000", "101731.415000", "101733.415000", "101735.415000", "101737.415000", "101739.415000", "101741.415000", "101743.415000", "101745.415000", "101747.415000", "101749.415000", "101751.415000", "101753.415000", "101755.415000", "101757.415000", "101759.415000", "101801.415000", "101803.415000", "101805.415000", "101807.415000", "101809.415000", "101811.415000", "101813.415000", "101815.415000", "101817.415000", "101819.415000", "101821.415000", "101823.415000", "101825.415000", "101827.415000", "101829.415000", "101831.415000", "101833.415000", "101835.415000", "101837.415000", "101839.415000", "101841.415000", "101843.415000", "101845.415000", "101847.415000", "101849.415000", "101851.415000", "101853.415000", "101855.415000", "101857.415000", "101859.415000", "101901.415000", "101903.415000", "101905.415000", "101907.415000", "101909.415000", "101911.415000", "101913.415000", "101915.415000", "101917.415000", "101919.415000", "101921.415000", "101923.415000", "101925.415000", "101927.415000", "101929.415000", "101931.415000", "101933.415000", "101935.415000", "101937.415000", "101939.415000", "101941.415000", "101943.415000", "101945.415000", "101947.415000", "101949.415000", "101951.415000", "101953.415000", "101955.415000", "101957.415000", "101959.415000", "102001.415000", "102003.415000", "102005.415000", "102007.415000", "102009.415000", "102011.415000", "102013.415000", "102015.415000", "102017.415000", "102019.415000", "102021.415000", "102023.415000", "102025.415000", "102027.415000", "102029.415000", "102031.415000", "102033.415000", "102035.415000", "102037.415000", "102039.415000", "102041.415000", "102043.415000", "102045.415000", "102047.415000", "102049.415000", "102051.415000", "102053.415000", "102055.415000", "102057.415000", "102059.415000", "102101.415000", "102103.415000", "102105.415000", "102107.415000", "102109.415000", "102111.415000", "102113.415000", "102115.415000", "102117.415000", "102119.415000", "102121.415000", "102123.415000", "102125.415000", "102127.415000", "102129.415000", "102131.415000", "102133.415000", "102135.415000", "102137.415000", "102139.415000", "102141.415000", "102143.415000", "102145.415000", "102147.415000", "102149.415000", "102151.415000", "102153.415000", "102155.415000", "102157.415000", "102159.415000", "102201.415000", "102203.415000", "102205.415000", "102207.415000", "102209.415000", "102211.415000", "102213.415000", "102215.415000", "102217.415000", "102219.415000", "102221.415000", "102223.415000", "102225.415000", "102227.415000", "102229.415000", "102231.415000", "102233.415000", "102235.415000", "102237.415000", "102239.415000", "102241.415000", "102243.415000", "102245.415000", "102247.415000", "102249.415000", "102251.415000", "102253.415000", "102255.415000", "102257.415000", "102259.415000", "102301.415000", "102303.415000", "102305.415000", "102307.415000", "102309.415000", "102311.415000", "102313.415000", "102315.415000", "102317.417500", "102319.417500", "102321.417500", "102323.417500", "102325.417500", "102327.417500", "102329.417500", "102331.417500", "102333.417500", "102335.417500", "102337.417500", "102339.417500", "102341.417500", "102343.417500", "102345.417500", "102347.417500", "102349.417500", "102351.417500", "102353.417500", "102355.417500", "102357.417500", "102359.417500", "102401.417500", "102403.417500", "102405.417500", "102407.417500", "102409.417500", "102411.417500", "102413.417500", "102415.417500", "102417.417500", "102419.417500", "102421.417500", "102423.417500", "102425.417500", "102427.417500", "102429.417500", "102431.417500", "102433.417500", "102435.417500", "102437.417500", "102439.417500", "102441.417500", "102443.417500", "102445.417500", "102447.417500", "102449.417500", "102451.417500", "102453.417500", "102455.417500", "102457.417500", "102459.417500", "102501.417500", "102503.417500", "102505.417500", "102507.417500", "102509.417500", "102511.417500", "102513.417500", "102515.417500", "102517.417500", "102519.417500", "102521.417500", "102523.417500", "102525.417500", "102527.417500", "102529.417500", "102531.417500", "102533.417500", "102535.417500", "102537.417500", "102539.417500", "102541.417500", "102543.417500", "102545.417500", "102547.417500", "102549.417500", "102551.417500", "102553.417500", "102555.417500", "102557.417500", "102559.417500", "102601.417500", "102603.417500", "102605.417500", "102607.417500", "102609.417500", "102611.417500", "102613.417500", "102615.417500", "102617.417500", "102619.417500", "102621.417500", "102623.417500", "102625.417500", "102627.417500", "102629.417500", "102631.417500", "102633.417500", "102635.417500", "102637.417500", "102639.417500"],
      "ContentTime": ["101440.811000", "101440.813000", "101440.815000", "101440.817000", "101520.806000", "101520.808000", "101520.810000", "101520.812000", "101520.814000", "101520.816000", "101520.818000", "101520.823000", "101520.825000", "101520.827000", "101520.829000", "101520.831000", "101520.833000", "101520.835000", "101520.837000", "101520.839000", "101520.841000", "101520.843000", "101520.845000", "101520.846000", "101600.807000", "101600.809000", "101600.811000", "101600.813000", "101600.815000", "101600.817000", "101600.819000", "101600.821000", "101600.823000", "101600.825000", "101600.827000", "101600.828000", "101600.830000", "101600.832000", "101600.834000", "101600.836000", "101600.838000", "101600.840000", "101600.842000", "101600.844000", "101640.807000", "101640.809000", "101640.811000", "101640.813000", "101640.815000", "101640.817000", "101640.819000", "101640.821000", "101640.823000", "101640.825000", "101640.827000", "101640.829000", "101640.831000", "101640.833000", "101640.835000", "101640.837000", "101640.839000", "101640.841000", "101640.842000", "101640.844000", "101720.806000", "101720.808000", "101720.810000", "101720.812000", "101720.814000", "101720.816000", "101720.818000", "101720.820000", "101720.822000", "101720.824000", "101720.826000", "101720.828000", "101720.830000", "101720.831000", "101720.833000", "101720.835000", "101720.837000", "101720.839000", "101720.841000", "101720.843000", "101800.807000", "101800.809000", "101800.811000", "101800.813000", "101800.815000", "101800.817000", "101800.819000", "101800.821000", "101800.823000", "101800.825000", "101800.827000", "101800.829000", "101800.831000", "101800.833000", "101800.835000", "101800.837000", "101800.839000", "101800.841000", "101800.843000", "101800.845000", "101840.807000", "101840.809000", "101840.820000", "101840.822000", "101840.824000", "101840.826000", "101840.828000", "101840.830000", "101840.832000", "101840.834000", "101840.836000", "101840.838000", "101840.840000", "101840.842000", "101840.844000", "101840.846000", "101840.848000", "101840.849000", "101840.851000", "101840.853000", "101920.806000", "101920.808000", "101920.810000", "101920.812000", "101920.814000", "101920.816000", "101920.818000", "101920.820000", "101920.822000", "101920.824000", "101920.826000", "101920.828000", "101920.830000", "101920.832000", "101920.833000", "101920.835000", "101920.837000", "101920.839000", "101920.846000", "101920.848000", "102000.806000", "102000.808000", "102000.810000", "102000.812000", "102000.814000", "102000.816000", "102000.818000", "102000.820000", "102000.822000", "102000.824000", "102000.826000", "102000.828000", "102000.830000", "102000.832000", "102000.834000", "102000.836000", "102000.838000", "102000.840000", "102000.842000", "102000.844000", "102040.807000", "102040.809000", "102040.811000", "102040.813000", "102040.815000", "102040.817000", "102040.819000", "102040.821000", "102040.823000", "102040.825000", "102040.827000", "102040.829000", "102040.831000", "102040.833000", "102040.835000", "102040.837000", "102040.839000", "102040.840000", "102040.842000", "102040.844000", "102120.807000", "102120.809000", "102120.811000", "102120.813000", "102120.815000", "102120.817000", "102120.819000", "102120.821000", "102120.823000", "102120.825000", "102120.827000", "102120.829000", "102120.831000", "102120.833000", "102120.835000", "102120.837000", "102120.839000", "102120.841000", "102120.843000", "102120.845000", "102200.806000", "102200.808000", "102200.810000", "102200.812000", "102200.814000", "102200.816000", "102200.818000", "102200.820000", "102200.822000", "102200.824000", "102200.826000", "102200.828000", "102200.830000", "102200.832000", "102200.834000", "102200.836000", "102200.837000", "102200.839000", "102200.841000", "102200.843000", "102240.807000", "102240.809000", "102240.811000", "102240.813000", "102240.815000", "102240.817000", "102240.819000", "102240.821000", "102240.823000", "102240.825000", "102240.827000", "102240.830000", "102240.832000", "102240.833000", "102240.835000", "102240.838000", "102240.839000", "102240.841000", "102240.843000", "102240.845000", "102320.807000", "102320.809000", "102320.811000", "102320.813000", "102320.815000", "102320.817000", "102320.819000", "102320.821000", "102320.823000", "102320.825000", "102320.827000", "102320.829000", "102320.831000", "102320.833000", "102320.835000", "102320.837000", "102320.839000", "102320.840000", "102320.842000", "102320.844000", "102400.806000", "102400.808000", "102400.810000", "102400.812000", "102400.814000", "102400.816000", "102400.818000", "102400.820000", "102400.822000", "102400.824000", "102400.826000", "102400.828000", "102400.830000", "102400.832000", "102400.834000", "102400.836000", "102400.838000", "102400.840000", "102400.842000", "102400.844000", "102440.806000", "102440.808000", "102440.810000", "102440.812000", "102440.814000", "102440.816000", "102440.818000", "102440.820000", "102440.822000", "102440.824000", "102440.826000", "102440.828000", "102440.830000", "102440.832000", "102440.834000", "102440.836000", "102440.838000", "102440.840000", "102440.842000", "102440.844000", "102520.807000", "102520.809000", "102520.811000", "102520.813000", "102520.815000", "102520.817000", "102520.819000", "102520.821000", "102520.823000", "102520.825000", "102520.827000", "102520.829000", "102520.831000", "102520.833000", "102520.835000", "102520.837000", "102520.839000", "102520.841000", "102520.843000", "102520.845000", "102600.806000", "102600.808000", "102600.810000", "102600.813000", "102600.814000", "102600.816000", "102600.818000", "102600.820000", "102600.822000", "102600.824000", "102600.826000", "102600.828000", "102600.830000", "102600.832000", "102600.834000", "102600.836000", "102600.838000", "102600.840000", "102600.842000", "102600.844000", "102640.761000", "102640.764000", "102640.765000", "102640.767000", "102640.769000", "102640.771000", "102640.773000", "102640.775000", "102640.777000", "102640.779000", "102640.781000", "102640.783000", "102640.785000", "102640.788000", "102640.790000", "102640.793000", "102640.795000", "102640.797000", "102640.799000", "102640.802000"],
      "InstanceCreationTime": ["101440.811000", "101440.813000", "101440.815000", "101440.817000", "101520.806000", "101520.808000", "101520.810000", "101520.812000", "101520.814000", "101520.816000", "101520.818000", "101520.823000", "101520.825000", "101520.827000", "101520.829000", "101520.831000", "101520.833000", "101520.835000", "101520.837000", "101520.839000", "101520.841000", "101520.843000", "101520.845000", "101520.846000", "101600.807000", "101600.809000", "101600.811000", "101600.813000", "101600.815000", "101600.817000", "101600.819000", "101600.821000", "101600.823000", "101600.825000", "101600.827000", "101600.828000", "101600.830000", "101600.832000", "101600.834000", "101600.836000", "101600.838000", "101600.840000", "101600.842000", "101600.844000", "101640.807000", "101640.809000", "101640.811000", "101640.813000", "101640.815000", "101640.817000", "101640.819000", "101640.821000", "101640.823000", "101640.825000", "101640.827000", "101640.829000", "101640.831000", "101640.833000", "101640.835000", "101640.837000", "101640.839000", "101640.841000", "101640.842000", "101640.844000", "101720.806000", "101720.808000", "101720.810000", "101720.812000", "101720.814000", "101720.816000", "101720.818000", "101720.820000", "101720.822000", "101720.824000", "101720.826000", "101720.828000", "101720.830000", "101720.831000", "101720.833000", "101720.835000", "101720.837000", "101720.839000", "101720.841000", "101720.843000", "101800.807000", "101800.809000", "101800.811000", "101800.813000", "101800.815000", "101800.817000", "101800.819000", "101800.821000", "101800.823000", "101800.825000", "101800.827000", "101800.829000", "101800.831000", "101800.833000", "101800.835000", "101800.837000", "101800.839000", "101800.841000", "101800.843000", "101800.845000", "101840.807000", "101840.809000", "101840.820000", "101840.822000", "101840.824000", "101840.826000", "101840.828000", "101840.830000", "101840.832000", "101840.834000", "101840.836000", "101840.838000", "101840.840000", "101840.842000", "101840.844000", "101840.846000", "101840.848000", "101840.849000", "101840.851000", "101840.853000", "101920.806000", "101920.808000", "101920.810000", "101920.812000", "101920.814000", "101920.816000", "101920.818000", "101920.820000", "101920.822000", "101920.824000", "101920.826000", "101920.828000", "101920.830000", "101920.832000", "101920.833000", "101920.835000", "101920.837000", "101920.839000", "101920.846000", "101920.848000", "102000.806000", "102000.808000", "102000.810000", "102000.812000", "102000.814000", "102000.816000", "102000.818000", "102000.820000", "102000.822000", "102000.824000", "102000.826000", "102000.828000", "102000.830000", "102000.832000", "102000.834000", "102000.836000", "102000.838000", "102000.840000", "102000.842000", "102000.844000", "102040.807000", "102040.809000", "102040.811000", "102040.813000", "102040.815000", "102040.817000", "102040.819000", "102040.821000", "102040.823000", "102040.825000", "102040.827000", "102040.829000", "102040.831000", "102040.833000", "102040.835000", "102040.837000", "102040.839000", "102040.840000", "102040.842000", "102040.844000", "102120.807000", "102120.809000", "102120.811000", "102120.813000", "102120.815000", "102120.817000", "102120.819000", "102120.821000", "102120.823000", "102120.825000", "102120.827000", "102120.829000", "102120.831000", "102120.833000", "102120.835000", "102120.837000", "102120.839000", "102120.841000", "102120.843000", "102120.845000", "102200.806000", "102200.808000", "102200.810000", "102200.812000", "102200.814000", "102200.816000", "102200.818000", "102200.820000", "102200.822000", "102200.824000", "102200.826000", "102200.828000", "102200.830000", "102200.832000", "102200.834000", "102200.836000", "102200.837000", "102200.839000", "102200.841000", "102200.843000", "102240.807000", "102240.809000", "102240.811000", "102240.813000", "102240.815000", "102240.817000", "102240.819000", "102240.821000", "102240.823000", "102240.825000", "102240.827000", "102240.830000", "102240.832000", "102240.833000", "102240.835000", "102240.838000", "102240.839000", "102240.841000", "102240.843000", "102240.845000", "102320.807000", "102320.809000", "102320.811000", "102320.813000", "102320.815000", "102320.817000", "102320.819000", "102320.821000", "102320.823000", "102320.825000", "102320.827000", "102320.829000", "102320.831000", "102320.833000", "102320.835000", "102320.837000", "102320.839000", "102320.840000", "102320.842000", "102320.844000", "102400.806000", "102400.808000", "102400.810000", "102400.812000", "102400.814000", "102400.816000", "102400.818000", "102400.820000", "102400.822000", "102400.824000", "102400.826000", "102400.828000", "102400.830000", "102400.832000", "102400.834000", "102400.836000", "102400.838000", "102400.840000", "102400.842000", "102400.844000", "102440.806000", "102440.808000", "102440.810000", "102440.812000", "102440.814000", "102440.816000", "102440.818000", "102440.820000", "102440.822000", "102440.824000", "102440.826000", "102440.828000", "102440.830000", "102440.832000", "102440.834000", "102440.836000", "102440.838000", "102440.840000", "102440.842000", "102440.844000", "102520.807000", "102520.809000", "102520.811000", "102520.813000", "102520.815000", "102520.817000", "102520.819000", "102520.821000", "102520.823000", "102520.825000", "102520.827000", "102520.829000", "102520.831000", "102520.833000", "102520.835000", "102520.837000", "102520.839000", "102520.841000", "102520.843000", "102520.845000", "102600.806000", "102600.808000", "102600.810000", "102600.813000", "102600.814000", "102600.816000", "102600.818000", "102600.820000", "102600.822000", "102600.824000", "102600.826000", "102600.828000", "102600.830000", "102600.832000", "102600.834000", "102600.836000", "102600.838000", "102600.840000", "102600.842000", "102600.844000", "102640.761000", "102640.764000", "102640.765000", "102640.767000", "102640.769000", "102640.771000", "102640.773000", "102640.775000", "102640.777000", "102640.779000", "102640.781000", "102640.783000", "102640.785000", "102640.788000", "102640.790000", "102640.793000", "102640.795000", "102640.797000", "102640.799000", "102640.802000"],
      "InstanceNumber": [1, 2, 3, 4, 5, 6, 7, 8, 9, 10, 11, 12, 13, 14, 15, 16, 17, 18, 19, 20, 21, 22, 23, 24, 25, 26, 27, 28, 29, 30, 31, 32, 33, 34, 35, 36, 37, 38, 39, 40, 41, 42, 43, 44, 45, 46, 47, 48, 49, 50, 51, 52, 53, 54, 55, 56, 57, 58, 59, 60, 61, 62, 63, 64, 65, 66, 67, 68, 69, 70, 71, 72, 73, 74, 75, 76, 77, 78, 79, 80, 81, 82, 83, 84, 85, 86, 87, 88, 89, 90, 91, 92, 93, 94, 95, 96, 97, 98, 99, 100, 101, 102, 103, 104, 105, 106, 107, 108, 109, 110, 111, 112, 113, 114, 115, 116, 117, 118, 119, 120, 121, 122, 123, 124, 125, 126, 127, 128, 129, 130, 131, 132, 133, 134, 135, 136, 137, 138, 139, 140, 141, 142, 143, 144, 145, 146, 147, 148, 149, 150, 151, 152, 153, 154, 155, 156, 157, 158, 159, 160, 161, 162, 163, 164, 165, 166, 167, 168, 169, 170, 171, 172, 173, 174, 175, 176, 177, 178, 179, 180, 181, 182, 183, 184, 185, 186, 187, 188, 189, 190, 191, 192, 193, 194, 195, 196, 197, 198, 199, 200, 201, 202, 203, 204, 205, 206, 207, 208, 209, 210, 211, 212, 213, 214, 215, 216, 217, 218, 219, 220, 221, 222, 223, 224, 225, 226, 227, 228, 229, 230, 231, 232, 233, 234, 235, 236, 237, 238, 239, 240, 241, 242, 243, 244, 245, 246, 247, 248, 249, 250, 251, 252, 253, 254, 255, 256, 257, 258, 259, 260, 261, 262, 263, 264, 265, 266, 267, 268, 269, 270, 271, 272, 273, 274, 275, 276, 277, 278, 279, 280, 281, 282, 283, 284, 285, 286, 287, 288, 289, 290, 291, 292, 293, 294, 295, 296, 297, 298, 299, 300, 301, 302, 303, 304, 305, 306, 307, 308, 309, 310, 311, 312, 313, 314, 315, 316, 317, 318, 319, 320, 321, 322, 323, 324, 325, 326, 327, 328, 329, 330, 331, 332, 333, 334, 335, 336, 337, 338, 339, 340, 341, 342, 343, 344, 345, 346, 347, 348, 349, 350, 351, 352, 353, 354, 355, 356, 357, 358, 359, 360, 361, 362, 363, 364],
      "LargestImagePixelValue": [3018, 3009, 3071, 3133, 3107, 3056, 3002, 3017, 2984, 2980, 2996, 3017, 3013, 3033, 3048, 3061, 3057, 3043, 3028, 3021, 2985, 3009, 3035, 3033, 3057, 3072, 3076, 3044, 2983, 2998, 3031, 3048, 3084, 3116, 3097, 3086, 3038, 3043, 3051, 3074, 3063, 3051, 3042, 3034, 3051, 3044, 3025, 2999, 2993, 2971, 2947, 2961, 2984, 2969, 2968, 3010, 3038, 3066, 3068, 3049, 3042, 3002, 3021, 3081, 3054, 3000, 2994, 2986, 2977, 2991, 2993, 3000, 3010, 2998, 2973, 3012, 3037, 3075, 3073, 3056, 3064, 3031, 3026, 3056, 3049, 3013, 3021, 3063, 3061, 3077, 3089, 3098, 3068, 3065, 3043, 3047, 3024, 3039, 3047, 3041, 3021, 2997, 3026, 2994, 2946, 2972, 3009, 2981, 2980, 2990, 2985, 2967, 2976, 2990, 3035, 3062, 3033, 3025, 3008, 3011, 3056, 3068, 3033, 3042, 3017, 3019, 3009, 3028, 3022, 3054, 3059, 3042, 3000, 3011, 3008, 3016, 3012, 3023, 3025, 3017, 2997, 2961, 2989, 3006, 2999, 2999, 3005, 3031, 3026, 3039, 3046, 3050, 3021, 2985, 2975, 2989, 2974, 2967, 2983, 3023, 3006, 2955, 2948, 2989, 3011, 2997, 2988, 3016, 3015, 2989, 3029, 3046, 3069, 3072, 3042, 3077, 3080, 3087, 3106, 3122, 3137, 3099, 3019, 2982, 2967, 2969, 2930, 2956, 3000, 2955, 2926, 2955, 2982, 2974, 2950, 2945, 2980, 3004, 3003, 3028, 3004, 2982, 2997, 2999, 3020, 3042, 3053, 3002, 2965, 2980, 3014, 3046, 3064, 2994, 2932, 2957, 3011, 3034, 3019, 3002, 3035, 3054, 3089, 3083, 3008, 2957, 2966, 2986, 2983, 2983, 2955, 2958, 2994, 3001, 2987, 2975, 2977, 3010, 3039, 3064, 3085, 3100, 3040, 2992, 3013, 2971, 2934, 2984, 3007, 3012, 3007, 3030, 3059, 3068, 3012, 2966, 2985, 2978, 2980, 3028, 3046, 3049, 3057, 3029, 3029, 3046, 3030, 3028, 3036, 3033, 3041, 3015, 2957, 2967, 2973, 2992, 3022, 3014, 3021, 3008, 3007, 3020, 3030, 3017, 2999, 2998, 3022, 3040, 3069, 3078, 3031, 2964, 2959, 2936, 2949, 2970, 3002, 3020, 2995, 2985, 2978, 3016, 3030, 3021, 3031, 3049, 3057, 3055, 3052, 2998, 2920, 2960, 2989, 2951, 2940, 2924, 2945, 2986, 2982, 3003, 3019, 3032, 3020, 3026, 3001, 3012, 3007, 2992, 2969, 2937, 2966, 3006, 2992, 2957, 2948, 2997, 3048, 3049, 3016, 2988, 2957, 2942, 2961, 2957, 2965, 2975, 2941, 2905, 2972, 3013, 2976, 2955, 2969, 2994, 3016, 3026, 3036, 2984, 2978, 3021, 3042, 3029, 2992, 2999],
