{
  "AcquisitionMatrixPE": 64,
  "AcquisitionNumber": 1,
  "AcquisitionTime": "09:54:5.812500",
  "BandwidthPerPixelPhaseEncode": 25.202,
  "BaseResolution": 64,
  "BodyPartExamined": "BRAIN",
  "ConsistencyInfo": "N4_VD13C_LATEST_20121124",
  "ConversionSoftware": "dcm2niix",
  "ConversionSoftwareVersion": "v1.0.20201102",
  "DerivedVendorReportedEchoSpacing": 0.00061999,
  "DeviceSerialNumber": "45758",
  "DwellTime": 4.3e-06,
  "EchoTime": 0.03,
  "EchoTrainLength": 64,
  "EffectiveEchoSpacing": 0.00061999,
  "FlipAngle": 90,
  "ImageOrientationPatientDICOM": [0.997267, 0.0558122, -0.048418, -0.0609954, 0.991701, -0.113175],
  "ImageType": [
    "ORIGINAL",
    "PRIMARY",
    "M",
    "ND",
    "MOSAIC"
],
  "ImagingFrequency": 123.2,
  "InPlanePhaseEncodingDirectionDICOM": "ROW",
  "InstitutionAddress": "Street StreetNo,City /652E4B/,District,KR,ZIP",
  "InstitutionName": "DGMIF",
  "InstitutionalDepartmentName": "Department",
  "MRAcquisitionType": "2D",
  "MagneticFieldStrength": 3,
  "Manufacturer": "Siemens",
  "ManufacturersModelName": "Skyra",
  "Modality": "MR",
  "PartialFourier": 1,
  "PatientPosition": "HFS",
  "PercentPhaseFOV": 100,
  "PercentSampling": 100,
  "PhaseEncodingDirection": "i",
  "PhaseEncodingSteps": 64,
  "PhaseResolution": 1,
  "PixelBandwidth": 1815,
  "ProcedureStepDescription": "DGMIF^DGIST_Jeon",
  "ProtocolName": "EPI_DGIST_2",
  "PulseSequenceDetails": "%SiemensSeq%\\ep2d_bold",
  "ReceiveCoilActiveElements": "HC1-7",
  "ReceiveCoilName": "HeadNeck_64",
  "ReconMatrixPE": 64,
  "RepetitionTime": 2,
  "SAR": 0.149918,
  "ScanOptions": "FS",
  "ScanningSequence": "EP",
  "SequenceName": "*epfid2d1_64",
  "SequenceVariant": "SK",
  "SeriesDescription": "EPI_DGIST_2",
  "SeriesNumber": 5,
  "ShimSetting": [-9725, -13643, -8211, 319, -533, -235, -247, -8],
  "SliceThickness": 4,
  "SliceTiming": [0.99, 0, 1.0575, 0.0675, 1.1225, 0.1325, 1.19, 0.2, 1.255, 0.265, 1.32, 0.33, 1.3875, 0.3975, 1.4525, 0.4625, 1.5175, 0.53, 1.585, 0.595, 1.65, 0.66, 1.7175, 0.7275, 1.7825, 0.7925, 1.8475, 0.86, 1.915, 0.925],
  "SoftwareVersions": "syngo MR D13C",
  "SpacingBetweenSlices": 4.8,
  "StationName": "AWP45758",
  "TaskName": "asrt",
  "TotalReadoutTime": 0.0390594,
  "TxRefAmp": 343.128,
  "dcmmeta_affine": [
    [-2.991799831390381, -0.182986319065094, -0.20015813410282135, 99.61997985839844],
    [-0.16743651032447815, 2.9751029014587402, -0.5559329986572266, -105.03418731689453],
    [-0.1452540010213852, 0.33952635526657104, 4.76349401473999, -85.0237808227539],
    [0.0, 0.0, 0.0, 1.0]
],
  "dcmmeta_reorient_transform": [
    [0.0, -1.0, 0.0, 63.0],
    [1.0, 0.0, 0.0, 0.0],
    [0.0, 0.0, 1.0, 0.0],
    [0.0, 0.0, 0.0, 1.0]
],
  "dcmmeta_shape": [64, 64, 30, 364],
  "dcmmeta_slice_dim": 2,
  "dcmmeta_version": 0.6,
  "global": {
    "const": {
      "AcquisitionMatrix": [0, 64, 64, 0],
      "AngioFlag": "N",
      "BitsAllocated": 16,
      "BitsStored": 12,
      "BodyPartExamined": "BRAIN",
      "Columns": 384,
      "EchoNumbers": 1,
      "EchoTime": 30.0,
      "EchoTrainLength": 64,
      "FlipAngle": 90.0,
      "HighBit": 11,
      "ImageOrientationPatient": [0.9972666136199, 0.05581217213623, -0.0484180007903, -0.0609954399539, 0.99170100051075, -0.1131754473851],
      "ImagePositionPatient": [-537.50200557331, -585.20362412679, 13.931234962455],
      "ImageType": [
        "ORIGINAL",
        "PRIMARY",
        "M",
        "ND",
        "MOSAIC"
],
      "ImagedNucleus": "1H",
      "ImagingFrequency": 123.200161,
      "InPlanePhaseEncodingDirection": "ROW",
      "MRAcquisitionType": "2D",
      "MagneticFieldStrength": 3.0,
      "Manufacturer": "SIEMENS",
      "ManufacturerModelName": "Skyra",
      "Modality": "MR",
      "NumberOfAverages": 1.0,
      "NumberOfPhaseEncodingSteps": 64,
      "PercentPhaseFieldOfView": 100.0,
      "PercentSampling": 100.0,
      "PerformedProcedureStepStartTime": "091335.710000",
      "PhotometricInterpretation": "MONOCHROME2",
      "PixelBandwidth": 1815.0,
      "PixelRepresentation": 0,
      "PixelSpacing": [3.0, 3.0],
      "ProtocolName": "EPI_DGIST_2",
      "RepetitionTime": 2000.0,
      "Rows": 384,
      "SAR": 0.14991847136808,
      "SamplesPerPixel": 1,
      "ScanOptions": "FS",
      "ScanningSequence": "EP",
      "SequenceName": "*epfid2d1_64",
      "SequenceVariant": "SK",
      "SeriesDescription": "EPI_DGIST_2",
      "SeriesNumber": 5,
      "SeriesTime": "095449.279000",
      "SliceLocation": -76.366259553083,
      "SliceThickness": 4.0,
      "SmallestImagePixelValue": 0,
      "SoftwareVersions": "syngo MR D13C",
      "SpacingBetweenSlices": 4.8000000097434,
      "SpecificCharacterSet": "ISO_IR 100",
      "StudyID": "1",
      "StudyTime": "091335.611000",
      "TimeOfLastCalibration": ["123723.000000", "123723.000000"],
      "TransmitCoilName": "Body",
      "VariableFlipAngleFlag": "N",
      "WindowCenterWidthExplanation": "Algo1",
      "dBdt": 0.0},
    "slices": {}
  },
  "time": {
    "samples": {
      "AcquisitionNumber": [1, 2, 3, 4, 5, 6, 7, 8, 9, 10, 11, 12, 13, 14, 15, 16, 17, 18, 19, 20, 21, 22, 23, 24, 25, 26, 27, 28, 29, 30, 31, 32, 33, 34, 35, 36, 37, 38, 39, 40, 41, 42, 43, 44, 45, 46, 47, 48, 49, 50, 51, 52, 53, 54, 55, 56, 57, 58, 59, 60, 61, 62, 63, 64, 65, 66, 67, 68, 69, 70, 71, 72, 73, 74, 75, 76, 77, 78, 79, 80, 81, 82, 83, 84, 85, 86, 87, 88, 89, 90, 91, 92, 93, 94, 95, 96, 97, 98, 99, 100, 101, 102, 103, 104, 105, 106, 107, 108, 109, 110, 111, 112, 113, 114, 115, 116, 117, 118, 119, 120, 121, 122, 123, 124, 125, 126, 127, 128, 129, 130, 131, 132, 133, 134, 135, 136, 137, 138, 139, 140, 141, 142, 143, 144, 145, 146, 147, 148, 149, 150, 151, 152, 153, 154, 155, 156, 157, 158, 159, 160, 161, 162, 163, 164, 165, 166, 167, 168, 169, 170, 171, 172, 173, 174, 175, 176, 177, 178, 179, 180, 181, 182, 183, 184, 185, 186, 187, 188, 189, 190, 191, 192, 193, 194, 195, 196, 197, 198, 199, 200, 201, 202, 203, 204, 205, 206, 207, 208, 209, 210, 211, 212, 213, 214, 215, 216, 217, 218, 219, 220, 221, 222, 223, 224, 225, 226, 227, 228, 229, 230, 231, 232, 233, 234, 235, 236, 237, 238, 239, 240, 241, 242, 243, 244, 245, 246, 247, 248, 249, 250, 251, 252, 253, 254, 255, 256, 257, 258, 259, 260, 261, 262, 263, 264, 265, 266, 267, 268, 269, 270, 271, 272, 273, 274, 275, 276, 277, 278, 279, 280, 281, 282, 283, 284, 285, 286, 287, 288, 289, 290, 291, 292, 293, 294, 295, 296, 297, 298, 299, 300, 301, 302, 303, 304, 305, 306, 307, 308, 309, 310, 311, 312, 313, 314, 315, 316, 317, 318, 319, 320, 321, 322, 323, 324, 325, 326, 327, 328, 329, 330, 331, 332, 333, 334, 335, 336, 337, 338, 339, 340, 341, 342, 343, 344, 345, 346, 347, 348, 349, 350, 351, 352, 353, 354, 355, 356, 357, 358, 359, 360, 361, 362, 363, 364],
      "AcquisitionTime": ["095405.812500", "095407.812500", "095409.812500", "095411.812500", "095413.812500", "095415.812500", "095417.812500", "095419.812500", "095421.812500", "095423.812500", "095425.812500", "095427.812500", "095429.812500", "095431.812500", "095433.812500", "095435.812500", "095437.812500", "095439.812500", "095441.812500", "095443.812500", "095445.812500", "095447.812500", "095449.812500", "095451.812500", "095453.812500", "095455.812500", "095457.812500", "095459.812500", "095501.812500", "095503.812500", "095505.812500", "095507.812500", "095509.812500", "095511.812500", "095513.812500", "095515.812500", "095517.812500", "095519.812500", "095521.812500", "095523.812500", "095525.812500", "095527.812500", "095529.812500", "095531.812500", "095533.812500", "095535.812500", "095537.812500", "095539.815000", "095541.815000", "095543.815000", "095545.815000", "095547.815000", "095549.815000", "095551.815000", "095553.815000", "095555.815000", "095557.815000", "095559.815000", "095601.815000", "095603.815000", "095605.815000", "095607.815000", "095609.815000", "095611.815000", "095613.815000", "095615.815000", "095617.815000", "095619.815000", "095621.815000", "095623.815000", "095625.815000", "095627.815000", "095629.815000", "095631.815000", "095633.815000", "095635.815000", "095637.815000", "095639.815000", "095641.815000", "095643.815000", "095645.815000", "095647.815000", "095649.815000", "095651.815000", "095653.815000", "095655.815000", "095657.815000", "095659.815000", "095701.815000", "095703.815000", "095705.815000", "095707.815000", "095709.815000", "095711.815000", "095713.815000", "095715.815000", "095717.815000", "095719.815000", "095721.815000", "095723.815000", "095725.815000", "095727.815000", "095729.815000", "095731.815000", "095733.815000", "095735.815000", "095737.815000", "095739.815000", "095741.815000", "095743.815000", "095745.815000", "095747.815000", "095749.815000", "095751.815000", "095753.815000", "095755.815000", "095757.815000", "095759.815000", "095801.815000", "095803.815000", "095805.815000", "095807.815000", "095809.815000", "095811.815000", "095813.815000", "095815.815000", "095817.815000", "095819.815000", "095821.815000", "095823.815000", "095825.815000", "095827.815000", "095829.815000", "095831.815000", "095833.815000", "095835.815000", "095837.815000", "095839.815000", "095841.815000", "095843.815000", "095845.815000", "095847.815000", "095849.815000", "095851.815000", "095853.815000", "095855.815000", "095857.815000", "095859.815000", "095901.815000", "095903.815000", "095905.815000", "095907.815000", "095909.815000", "095911.815000", "095913.815000", "095915.815000", "095917.815000", "095919.815000", "095921.815000", "095923.815000", "095925.815000", "095927.815000", "095929.815000", "095931.815000", "095933.815000", "095935.815000", "095937.815000", "095939.815000", "095941.815000", "095943.815000", "095945.815000", "095947.815000", "095949.815000", "095951.815000", "095953.815000", "095955.815000", "095957.815000", "095959.815000", "100001.815000", "100003.815000", "100005.815000", "100007.815000", "100009.815000", "100011.815000", "100013.815000", "100015.815000", "100017.815000", "100019.815000", "100021.815000", "100023.815000", "100025.815000", "100027.815000", "100029.815000", "100031.815000", "100033.815000", "100035.815000", "100037.815000", "100039.815000", "100041.815000", "100043.815000", "100045.815000", "100047.815000", "100049.815000", "100051.815000", "100053.815000", "100055.815000", "100057.815000", "100059.815000", "100101.815000", "100103.815000", "100105.815000", "100107.815000", "100109.815000", "100111.815000", "100113.815000", "100115.815000", "100117.815000", "100119.815000", "100121.815000", "100123.815000", "100125.815000", "100127.815000", "100129.815000", "100131.815000", "100133.815000", "100135.815000", "100137.815000", "100139.815000", "100141.815000", "100143.815000", "100145.815000", "100147.815000", "100149.815000", "100151.815000", "100153.815000", "100155.815000", "100157.815000", "100159.815000", "100201.815000", "100203.815000", "100205.815000", "100207.815000", "100209.815000", "100211.815000", "100213.815000", "100215.815000", "100217.815000", "100219.815000", "100221.815000", "100223.815000", "100225.815000", "100227.815000", "100229.815000", "100231.815000", "100233.815000", "100235.815000", "100237.815000", "100239.815000", "100241.815000", "100243.815000", "100245.815000", "100247.815000", "100249.815000", "100251.815000", "100253.815000", "100255.815000", "100257.815000", "100259.815000", "100301.815000", "100303.815000", "100305.815000", "100307.815000", "100309.815000", "100311.815000", "100313.815000", "100315.815000", "100317.815000", "100319.815000", "100321.815000", "100323.815000", "100325.815000", "100327.815000", "100329.815000", "100331.815000", "100333.815000", "100335.815000", "100337.815000", "100339.815000", "100341.815000", "100343.815000", "100345.815000", "100347.815000", "100349.815000", "100351.815000", "100353.815000", "100355.815000", "100357.815000", "100359.817500", "100401.817500", "100403.817500", "100405.817500", "100407.817500", "100409.817500", "100411.817500", "100413.817500", "100415.817500", "100417.817500", "100419.817500", "100421.817500", "100423.817500", "100425.817500", "100427.817500", "100429.817500", "100431.817500", "100433.817500", "100435.817500", "100437.817500", "100439.817500", "100441.817500", "100443.817500", "100445.817500", "100447.817500", "100449.817500", "100451.817500", "100453.817500", "100455.817500", "100457.817500", "100459.817500", "100501.817500", "100503.817500", "100505.817500", "100507.817500", "100509.817500", "100511.817500", "100513.817500", "100515.817500", "100517.817500", "100519.817500", "100521.817500", "100523.817500", "100525.817500", "100527.817500", "100529.817500", "100531.817500", "100533.817500", "100535.817500", "100537.817500", "100539.817500", "100541.817500", "100543.817500", "100545.817500", "100547.817500", "100549.817500", "100551.817500", "100553.817500", "100555.817500", "100557.817500", "100559.817500", "100601.817500", "100603.817500", "100605.817500", "100607.817500", "100609.817500", "100611.817500"],
      "ContentTime": ["095449.282000", "095449.285000", "095449.287000", "095449.289000", "095449.291000", "095449.292000", "095449.294000", "095449.296000", "095449.298000", "095449.300000", "095449.302000", "095449.304000", "095449.306000", "095449.308000", "095449.310000", "095449.312000", "095449.314000", "095449.316000", "095449.318000", "095449.320000", "095449.322000", "095449.324000", "095529.278000", "095529.280000", "095529.282000", "095529.284000", "095529.286000", "095529.288000", "095529.290000", "095529.292000", "095529.294000", "095529.296000", "095529.298000", "095529.300000", "095529.302000", "095529.304000", "095529.306000", "095529.308000", "095529.309000", "095529.311000", "095529.313000", "095529.315000", "095609.280000", "095609.282000", "095609.284000", "095609.286000", "095609.288000", "095609.290000", "095609.292000", "095609.294000", "095609.296000", "095609.298000", "095609.300000", "095609.302000", "095609.304000", "095609.306000", "095609.307000", "095609.309000", "095609.311000", "095609.313000", "095609.315000", "095609.317000", "095649.277000", "095649.279000", "095649.281000", "095649.283000", "095649.285000", "095649.287000", "095649.289000", "095649.291000", "095649.293000", "095649.295000", "095649.297000", "095649.299000", "095649.301000", "095649.303000", "095649.305000", "095649.307000", "095649.308000", "095649.310000", "095649.312000", "095649.314000", "095729.278000", "095729.280000", "095729.282000", "095729.297000", "095729.299000", "095729.301000", "095729.303000", "095729.304000", "095729.306000", "095729.308000", "095729.310000", "095729.312000", "095729.314000", "095729.316000", "095729.318000", "095729.320000", "095729.322000", "095729.324000", "095729.326000", "095729.328000", "095809.278000", "095809.280000", "095809.282000", "095809.284000", "095809.286000", "095809.288000", "095809.290000", "095809.292000", "095809.294000", "095809.296000", "095809.298000", "095809.300000", "095809.302000", "095809.304000", "095809.305000", "095809.307000", "095809.309000", "095809.311000", "095809.313000", "095809.315000", "095849.277000", "095849.279000", "095849.281000", "095849.283000", "095849.285000", "095849.287000", "095849.289000", "095849.291000", "095849.293000", "095849.295000", "095849.297000", "095849.299000", "095849.301000", "095849.303000", "095849.305000", "095849.307000", "095849.309000", "095849.311000", "095849.312000", "095849.314000", "095929.277000", "095929.279000", "095929.281000", "095929.283000", "095929.285000", "095929.287000", "095929.289000", "095929.291000", "095929.293000", "095929.295000", "095929.297000", "095929.299000", "095929.301000", "095929.303000", "095929.305000", "095929.307000", "095929.309000", "095929.311000", "095929.313000", "095929.315000", "095949.278000", "095949.280000", "095949.282000", "095949.284000", "095949.286000", "095949.288000", "095949.290000", "095949.292000", "095949.294000", "095949.296000", "100029.278000", "100029.280000", "100029.282000", "100029.284000", "100029.286000", "100029.288000", "100029.290000", "100029.292000", "100029.294000", "100029.296000", "100029.298000", "100029.300000", "100029.302000", "100029.304000", "100029.306000", "100029.308000", "100029.310000", "100029.312000", "100029.314000", "100029.316000", "100109.277000", "100109.279000", "100109.281000", "100109.283000", "100109.285000", "100109.287000", "100109.289000", "100109.291000", "100109.293000", "100109.295000", "100109.297000", "100109.299000", "100109.301000", "100109.303000", "100109.305000", "100109.307000", "100109.309000", "100109.311000", "100109.312000", "100109.314000", "100149.277000", "100149.279000", "100149.281000", "100149.283000", "100149.285000", "100149.287000", "100149.289000", "100149.291000", "100149.293000", "100149.295000", "100149.297000", "100149.299000", "100149.301000", "100149.303000", "100149.305000", "100149.307000", "100149.309000", "100149.311000", "100149.313000", "100149.315000", "100229.278000", "100229.280000", "100229.282000", "100229.284000", "100229.286000", "100229.288000", "100229.290000", "100229.292000", "100229.294000", "100229.296000", "100229.298000", "100229.300000", "100229.302000", "100229.304000", "100229.305000", "100229.307000", "100229.309000", "100229.311000", "100229.313000", "100229.315000", "100309.278000", "100309.280000", "100309.282000", "100309.284000", "100309.286000", "100309.288000", "100309.290000", "100309.292000", "100309.294000", "100309.296000", "100309.298000", "100309.300000", "100309.302000", "100309.304000", "100309.306000", "100309.308000", "100309.310000", "100309.312000", "100309.314000", "100309.316000", "100349.277000", "100349.279000", "100349.281000", "100349.283000", "100349.285000", "100349.287000", "100349.289000", "100349.291000", "100349.293000", "100349.295000", "100349.297000", "100349.299000", "100349.301000", "100349.303000", "100349.305000", "100349.307000", "100349.309000", "100349.310000", "100349.312000", "100349.314000", "100429.278000", "100429.280000", "100429.282000", "100429.284000", "100429.286000", "100429.288000", "100429.290000", "100429.292000", "100429.294000", "100429.296000", "100429.298000", "100429.300000", "100429.302000", "100429.304000", "100429.306000", "100429.308000", "100429.310000", "100429.312000", "100429.313000", "100429.315000", "100509.278000", "100509.281000", "100509.282000", "100509.284000", "100509.286000", "100509.288000", "100509.290000", "100509.292000", "100509.294000", "100509.296000", "100509.298000", "100509.300000", "100509.302000", "100509.304000", "100509.306000", "100509.308000", "100509.310000", "100509.312000", "100509.314000", "100509.316000", "100549.277000", "100549.279000", "100549.281000", "100549.283000", "100549.285000", "100549.287000", "100549.289000", "100549.291000", "100549.293000", "100549.295000", "100549.297000", "100549.299000", "100549.301000", "100549.303000", "100549.305000", "100549.307000", "100549.309000", "100549.311000", "100549.313000", "100549.315000", "100612.878000", "100612.881000", "100612.883000", "100612.885000", "100612.887000", "100612.889000", "100612.891000", "100612.892000", "100612.894000", "100612.912000", "100612.914000", "100612.916000"],
      "InstanceCreationTime": ["095449.282000", "095449.285000", "095449.287000", "095449.289000", "095449.291000", "095449.292000", "095449.294000", "095449.296000", "095449.298000", "095449.300000", "095449.302000", "095449.304000", "095449.306000", "095449.308000", "095449.310000", "095449.312000", "095449.314000", "095449.316000", "095449.318000", "095449.320000", "095449.322000", "095449.324000", "095529.278000", "095529.280000", "095529.282000", "095529.284000", "095529.286000", "095529.288000", "095529.290000", "095529.292000", "095529.294000", "095529.296000", "095529.298000", "095529.300000", "095529.302000", "095529.304000", "095529.306000", "095529.308000", "095529.309000", "095529.311000", "095529.313000", "095529.315000", "095609.280000", "095609.282000", "095609.284000", "095609.286000", "095609.288000", "095609.290000", "095609.292000", "095609.294000", "095609.296000", "095609.298000", "095609.300000", "095609.302000", "095609.304000", "095609.306000", "095609.307000", "095609.309000", "095609.311000", "095609.313000", "095609.315000", "095609.317000", "095649.277000", "095649.279000", "095649.281000", "095649.283000", "095649.285000", "095649.287000", "095649.289000", "095649.291000", "095649.293000", "095649.295000", "095649.297000", "095649.299000", "095649.301000", "095649.303000", "095649.305000", "095649.307000", "095649.308000", "095649.310000", "095649.312000", "095649.314000", "095729.278000", "095729.280000", "095729.282000", "095729.297000", "095729.299000", "095729.301000", "095729.303000", "095729.304000", "095729.306000", "095729.308000", "095729.310000", "095729.312000", "095729.314000", "095729.316000", "095729.318000", "095729.320000", "095729.322000", "095729.324000", "095729.326000", "095729.328000", "095809.278000", "095809.280000", "095809.282000", "095809.284000", "095809.286000", "095809.288000", "095809.290000", "095809.292000", "095809.294000", "095809.296000", "095809.298000", "095809.300000", "095809.302000", "095809.304000", "095809.305000", "095809.307000", "095809.309000", "095809.311000", "095809.313000", "095809.315000", "095849.277000", "095849.279000", "095849.281000", "095849.283000", "095849.285000", "095849.287000", "095849.289000", "095849.291000", "095849.293000", "095849.295000", "095849.297000", "095849.299000", "095849.301000", "095849.303000", "095849.305000", "095849.307000", "095849.309000", "095849.311000", "095849.312000", "095849.314000", "095929.277000", "095929.279000", "095929.281000", "095929.283000", "095929.285000", "095929.287000", "095929.289000", "095929.291000", "095929.293000", "095929.295000", "095929.297000", "095929.299000", "095929.301000", "095929.303000", "095929.305000", "095929.307000", "095929.309000", "095929.311000", "095929.313000", "095929.315000", "095949.278000", "095949.280000", "095949.282000", "095949.284000", "095949.286000", "095949.288000", "095949.290000", "095949.292000", "095949.294000", "095949.296000", "100029.278000", "100029.280000", "100029.282000", "100029.284000", "100029.286000", "100029.288000", "100029.290000", "100029.292000", "100029.294000", "100029.296000", "100029.298000", "100029.300000", "100029.302000", "100029.304000", "100029.306000", "100029.308000", "100029.310000", "100029.312000", "100029.314000", "100029.316000", "100109.277000", "100109.279000", "100109.281000", "100109.283000", "100109.285000", "100109.287000", "100109.289000", "100109.291000", "100109.293000", "100109.295000", "100109.297000", "100109.299000", "100109.301000", "100109.303000", "100109.305000", "100109.307000", "100109.309000", "100109.311000", "100109.312000", "100109.314000", "100149.277000", "100149.279000", "100149.281000", "100149.283000", "100149.285000", "100149.287000", "100149.289000", "100149.291000", "100149.293000", "100149.295000", "100149.297000", "100149.299000", "100149.301000", "100149.303000", "100149.305000", "100149.307000", "100149.309000", "100149.311000", "100149.313000", "100149.315000", "100229.278000", "100229.280000", "100229.282000", "100229.284000", "100229.286000", "100229.288000", "100229.290000", "100229.292000", "100229.294000", "100229.296000", "100229.298000", "100229.300000", "100229.302000", "100229.304000", "100229.305000", "100229.307000", "100229.309000", "100229.311000", "100229.313000", "100229.315000", "100309.278000", "100309.280000", "100309.282000", "100309.284000", "100309.286000", "100309.288000", "100309.290000", "100309.292000", "100309.294000", "100309.296000", "100309.298000", "100309.300000", "100309.302000", "100309.304000", "100309.306000", "100309.308000", "100309.310000", "100309.312000", "100309.314000", "100309.316000", "100349.277000", "100349.279000", "100349.281000", "100349.283000", "100349.285000", "100349.287000", "100349.289000", "100349.291000", "100349.293000", "100349.295000", "100349.297000", "100349.299000", "100349.301000", "100349.303000", "100349.305000", "100349.307000", "100349.309000", "100349.310000", "100349.312000", "100349.314000", "100429.278000", "100429.280000", "100429.282000", "100429.284000", "100429.286000", "100429.288000", "100429.290000", "100429.292000", "100429.294000", "100429.296000", "100429.298000", "100429.300000", "100429.302000", "100429.304000", "100429.306000", "100429.308000", "100429.310000", "100429.312000", "100429.313000", "100429.315000", "100509.278000", "100509.281000", "100509.282000", "100509.284000", "100509.286000", "100509.288000", "100509.290000", "100509.292000", "100509.294000", "100509.296000", "100509.298000", "100509.300000", "100509.302000", "100509.304000", "100509.306000", "100509.308000", "100509.310000", "100509.312000", "100509.314000", "100509.316000", "100549.277000", "100549.279000", "100549.281000", "100549.283000", "100549.285000", "100549.287000", "100549.289000", "100549.291000", "100549.293000", "100549.295000", "100549.297000", "100549.299000", "100549.301000", "100549.303000", "100549.305000", "100549.307000", "100549.309000", "100549.311000", "100549.313000", "100549.315000", "100612.878000", "100612.881000", "100612.883000", "100612.885000", "100612.887000", "100612.889000", "100612.891000", "100612.892000", "100612.894000", "100612.912000", "100612.914000", "100612.916000"],
      "InstanceNumber": [1, 2, 3, 4, 5, 6, 7, 8, 9, 10, 11, 12, 13, 14, 15, 16, 17, 18, 19, 20, 21, 22, 23, 24, 25, 26, 27, 28, 29, 30, 31, 32, 33, 34, 35, 36, 37, 38, 39, 40, 41, 42, 43, 44, 45, 46, 47, 48, 49, 50, 51, 52, 53, 54, 55, 56, 57, 58, 59, 60, 61, 62, 63, 64, 65, 66, 67, 68, 69, 70, 71, 72, 73, 74, 75, 76, 77, 78, 79, 80, 81, 82, 83, 84, 85, 86, 87, 88, 89, 90, 91, 92, 93, 94, 95, 96, 97, 98, 99, 100, 101, 102, 103, 104, 105, 106, 107, 108, 109, 110, 111, 112, 113, 114, 115, 116, 117, 118, 119, 120, 121, 122, 123, 124, 125, 126, 127, 128, 129, 130, 131, 132, 133, 134, 135, 136, 137, 138, 139, 140, 141, 142, 143, 144, 145, 146, 147, 148, 149, 150, 151, 152, 153, 154, 155, 156, 157, 158, 159, 160, 161, 162, 163, 164, 165, 166, 167, 168, 169, 170, 171, 172, 173, 174, 175, 176, 177, 178, 179, 180, 181, 182, 183, 184, 185, 186, 187, 188, 189, 190, 191, 192, 193, 194, 195, 196, 197, 198, 199, 200, 201, 202, 203, 204, 205, 206, 207, 208, 209, 210, 211, 212, 213, 214, 215, 216, 217, 218, 219, 220, 221, 222, 223, 224, 225, 226, 227, 228, 229, 230, 231, 232, 233, 234, 235, 236, 237, 238, 239, 240, 241, 242, 243, 244, 245, 246, 247, 248, 249, 250, 251, 252, 253, 254, 255, 256, 257, 258, 259, 260, 261, 262, 263, 264, 265, 266, 267, 268, 269, 270, 271, 272, 273, 274, 275, 276, 277, 278, 279, 280, 281, 282, 283, 284, 285, 286, 287, 288, 289, 290, 291, 292, 293, 294, 295, 296, 297, 298, 299, 300, 301, 302, 303, 304, 305, 306, 307, 308, 309, 310, 311, 312, 313, 314, 315, 316, 317, 318, 319, 320, 321, 322, 323, 324, 325, 326, 327, 328, 329, 330, 331, 332, 333, 334, 335, 336, 337, 338, 339, 340, 341, 342, 343, 344, 345, 346, 347, 348, 349, 350, 351, 352, 353, 354, 355, 356, 357, 358, 359, 360, 361, 362, 363, 364],
      "LargestImagePixelValue": [3163, 3089, 3094, 3077, 3083, 3063, 3081, 3083, 3057, 3072, 3089, 3055, 3080, 3066, 3076, 3047, 3037, 3037, 3048, 3042, 3046, 3024, 3032, 3047, 3018, 3061, 3039, 3040, 3064, 3039, 3042, 3085, 3077, 3064, 3084, 3074, 3056, 3073, 3051, 3051, 3042, 3043, 3061, 3067, 3089, 3043, 3045, 3052, 3047, 3092, 3052, 3039, 3057, 3015, 3066, 3049, 3042, 3058, 3038, 3048, 3066, 2992, 3022, 3059, 3018, 3063, 3058, 3072, 3067, 3062, 3039, 3064, 3029, 3018, 3053, 3037, 3062, 3054, 3060, 3074, 3035, 3039, 3055, 3048, 3050, 3057, 3069, 3051, 3046, 3054, 3101, 3095, 3064, 3110, 3082, 3042, 3089, 3069, 3077, 3070, 3078, 3075, 3099, 3053, 3058, 3053, 3029, 3067, 3043, 3067, 3057, 3063, 3050, 3077, 3059, 3078, 3079, 3079, 3087, 3099, 3074, 3080, 3092, 3094, 3085, 3080, 3074, 3098, 3062, 3101, 3093, 3098, 3065, 3072, 3084, 3072, 3049, 3049, 3058, 3065, 3036, 3038, 3072, 3042, 3075, 3039, 3039, 3082, 3066, 3075, 3100, 3095, 3030, 3111, 3086, 3069, 3115, 3113, 3107, 3099, 3055, 3110, 3079, 3075, 3092, 3072, 3099, 3092, 3064, 3041, 3077, 3063, 3036, 3080, 3071, 3044, 3080, 3069, 3065, 3072, 3066, 3089, 3064, 3067, 3129, 3095, 3067, 3074, 3075, 3089, 3074, 3078, 3098, 3081, 3065, 3109, 3071, 3052, 3038, 3082, 3051, 3040, 3060, 3058, 3072, 3075, 3070, 3079, 3081, 3065, 3039, 3092, 3058, 3103, 3118, 3076, 3092, 3079, 3094, 3104, 3079, 3071, 3098, 3093, 3086, 3092, 3079, 3048, 3082, 3070, 3092, 3075, 3071, 3086, 3067, 3078, 3079, 3050, 3092, 3072, 3079, 3105, 3067, 3084, 3109, 3095, 3110, 3076, 3066, 3063, 3053, 3070, 3056, 3088, 3074, 3040, 3091, 3066, 3087, 3092, 3059, 3094, 3068, 3027, 3088, 3067, 3072, 3078, 3072, 3093, 3094, 3101, 3078, 3104, 3085, 3075, 3101, 3057, 3082, 3098, 3068, 3110, 3073, 3057, 3088, 3040, 3086, 3083, 3035, 3064, 3068, 3059, 3076, 3048, 3086, 3068, 3090, 3064, 3043, 3063, 3066, 3113, 3077, 3112, 3078, 3044, 3080, 3056, 3080, 3071, 3083, 3081, 3093, 3057, 3055, 3067, 3061, 3114, 3064, 3053, 3102, 3063, 3053, 3078, 3034, 3033, 3026, 3049, 3058, 3033, 3094, 3048, 3047, 3033, 3010, 3063, 3041, 3080, 3046, 3039, 3056, 3048, 3022, 3077, 3035, 3037, 3046, 3037, 3229, 3014, 3029, 3056, 3061, 3069, 3032, 3036, 3050, 3073, 3021, 3041, 3019, 3098, 3054, 3055],
