{
  "AcquisitionMatrixPE": 64,
  "AcquisitionNumber": 1,
  "AcquisitionTime": "09:35:31.885000",
  "BandwidthPerPixelPhaseEncode": 25.202,
  "BaseResolution": 64,
  "BodyPartExamined": "BRAIN",
  "ConsistencyInfo": "N4_VD13C_LATEST_20121124",
  "ConversionSoftware": "dcm2niix",
  "ConversionSoftwareVersion": "v1.0.20201102",
  "DerivedVendorReportedEchoSpacing": 0.00061999,
  "DeviceSerialNumber": "45758",
  "DwellTime": 4.3e-06,
  "EchoTime": 0.03,
  "EchoTrainLength": 64,
  "EffectiveEchoSpacing": 0.00061999,
  "FlipAngle": 90,
  "ImageOrientationPatientDICOM": [0.997267, 0.0558122, -0.048418, -0.0609954, 0.991701, -0.113175],
  "ImageType": [
    "ORIGINAL",
    "PRIMARY",
    "M",
    "ND",
    "MOSAIC"
],
  "ImagingFrequency": 123.2,
  "InPlanePhaseEncodingDirectionDICOM": "ROW",
  "InstitutionAddress": "Street StreetNo,City /652E4B/,District,KR,ZIP",
  "InstitutionName": "DGMIF",
  "InstitutionalDepartmentName": "Department",
  "MRAcquisitionType": "2D",
  "MagneticFieldStrength": 3,
  "Manufacturer": "Siemens",
  "ManufacturersModelName": "Skyra",
  "Modality": "MR",
  "PartialFourier": 1,
  "PatientPosition": "HFS",
  "PercentPhaseFOV": 100,
  "PercentSampling": 100,
  "PhaseEncodingDirection": "i",
  "PhaseEncodingSteps": 64,
  "PhaseResolution": 1,
  "PixelBandwidth": 1815,
  "ProcedureStepDescription": "DGMIF^DGIST_Jeon",
  "ProtocolName": "EPI_DGIST_1",
  "PulseSequenceDetails": "%SiemensSeq%\\ep2d_bold",
  "ReceiveCoilActiveElements": "HC1-7",
  "ReceiveCoilName": "HeadNeck_64",
  "ReconMatrixPE": 64,
  "RepetitionTime": 2,
  "SAR": 0.149918,
  "ScanOptions": "FS",
  "ScanningSequence": "EP",
  "SequenceName": "*epfid2d1_64",
  "SequenceVariant": "SK",
  "SeriesDescription": "EPI_DGIST_1",
  "SeriesNumber": 4,
  "ShimSetting": [-9725, -13643, -8211, 319, -533, -235, -247, -8],
  "SliceThickness": 4,
  "SliceTiming": [0.99, 0, 1.055, 0.065, 1.1225, 0.1325, 1.1875, 0.1975, 1.2525, 0.2625, 1.32, 0.33, 1.385, 0.395, 1.4525, 0.4625, 1.5175, 0.5275, 1.5825, 0.5925, 1.65, 0.66, 1.715, 0.725, 1.7825, 0.7925, 1.8475, 0.8575, 1.9125, 0.9225],
  "SoftwareVersions": "syngo MR D13C",
  "SpacingBetweenSlices": 4.8,
  "StationName": "AWP45758",
  "TaskName": "asrt",
  "TotalReadoutTime": 0.0390594,
  "TxRefAmp": 343.128,
  "dcmmeta_affine": [
    [-2.991799831390381, -0.182986319065094, -0.20015813410282135, 99.61997985839844],
    [-0.16743651032447815, 2.9751029014587402, -0.5559329986572266, -105.03418731689453],
    [-0.1452540010213852, 0.33952635526657104, 4.76349401473999, -85.0237808227539],
    [0.0, 0.0, 0.0, 1.0]
],
  "dcmmeta_reorient_transform": [
    [0.0, -1.0, 0.0, 63.0],
    [1.0, 0.0, 0.0, 0.0],
    [0.0, 0.0, 1.0, 0.0],
    [0.0, 0.0, 0.0, 1.0]
],
  "dcmmeta_shape": [64, 64, 30, 514],
  "dcmmeta_slice_dim": 2,
  "dcmmeta_version": 0.6,
  "global": {
    "const": {
      "AcquisitionMatrix": [0, 64, 64, 0],
      "AngioFlag": "N",
      "BitsAllocated": 16,
      "BitsStored": 12,
      "BodyPartExamined": "BRAIN",
      "Columns": 384,
      "EchoNumbers": 1,
      "EchoTime": 30.0,
      "EchoTrainLength": 64,
      "FlipAngle": 90.0,
      "HighBit": 11,
      "ImageOrientationPatient": [0.9972666136199, 0.05581217213623, -0.0484180007903, -0.0609954399539, 0.99170100051075, -0.1131754473851],
      "ImagePositionPatient": [-537.50200557331, -585.20362412679, 13.931234962455],
      "ImageType": [
        "ORIGINAL",
        "PRIMARY",
        "M",
        "ND",
        "MOSAIC"
],
      "ImagedNucleus": "1H",
      "ImagingFrequency": 123.200117,
      "InPlanePhaseEncodingDirection": "ROW",
      "MRAcquisitionType": "2D",
      "MagneticFieldStrength": 3.0,
      "Manufacturer": "SIEMENS",
      "ManufacturerModelName": "Skyra",
      "Modality": "MR",
      "NumberOfAverages": 1.0,
      "NumberOfPhaseEncodingSteps": 64,
      "PercentPhaseFieldOfView": 100.0,
      "PercentSampling": 100.0,
      "PerformedProcedureStepStartTime": "091335.710000",
      "PhotometricInterpretation": "MONOCHROME2",
      "PixelBandwidth": 1815.0,
      "PixelRepresentation": 0,
      "PixelSpacing": [3.0, 3.0],
      "ProtocolName": "EPI_DGIST_1",
      "RepetitionTime": 2000.0,
      "Rows": 384,
      "SAR": 0.14991847136808,
      "SamplesPerPixel": 1,
      "ScanOptions": "FS",
      "ScanningSequence": "EP",
      "SequenceName": "*epfid2d1_64",
      "SequenceVariant": "SK",
      "SeriesDescription": "EPI_DGIST_1",
      "SeriesNumber": 4,
      "SeriesTime": "093622.051000",
      "SliceLocation": -76.366259553083,
      "SliceThickness": 4.0,
      "SmallestImagePixelValue": 0,
      "SoftwareVersions": "syngo MR D13C",
      "SpacingBetweenSlices": 4.8000000097434,
      "SpecificCharacterSet": "ISO_IR 100",
      "StudyID": "1",
      "StudyTime": "091335.611000",
      "TimeOfLastCalibration": ["123723.000000", "123723.000000"],
      "TransmitCoilName": "Body",
      "VariableFlipAngleFlag": "N",
      "WindowCenterWidthExplanation": "Algo1",
      "dBdt": 0.0},
    "slices": {}
  },
  "time": {
    "samples": {
      "AcquisitionNumber": [1, 2, 3, 4, 5, 6, 7, 8, 9, 10, 11, 12, 13, 14, 15, 16, 17, 18, 19, 20, 21, 22, 23, 24, 25, 26, 27, 28, 29, 30, 31, 32, 33, 34, 35, 36, 37, 38, 39, 40, 41, 42, 43, 44, 45, 46, 47, 48, 49, 50, 51, 52, 53, 54, 55, 56, 57, 58, 59, 60, 61, 62, 63, 64, 65, 66, 67, 68, 69, 70, 71, 72, 73, 74, 75, 76, 77, 78, 79, 80, 81, 82, 83, 84, 85, 86, 87, 88, 89, 90, 91, 92, 93, 94, 95, 96, 97, 98, 99, 100, 101, 102, 103, 104, 105, 106, 107, 108, 109, 110, 111, 112, 113, 114, 115, 116, 117, 118, 119, 120, 121, 122, 123, 124, 125, 126, 127, 128, 129, 130, 131, 132, 133, 134, 135, 136, 137, 138, 139, 140, 141, 142, 143, 144, 145, 146, 147, 148, 149, 150, 151, 152, 153, 154, 155, 156, 157, 158, 159, 160, 161, 162, 163, 164, 165, 166, 167, 168, 169, 170, 171, 172, 173, 174, 175, 176, 177, 178, 179, 180, 181, 182, 183, 184, 185, 186, 187, 188, 189, 190, 191, 192, 193, 194, 195, 196, 197, 198, 199, 200, 201, 202, 203, 204, 205, 206, 207, 208, 209, 210, 211, 212, 213, 214, 215, 216, 217, 218, 219, 220, 221, 222, 223, 224, 225, 226, 227, 228, 229, 230, 231, 232, 233, 234, 235, 236, 237, 238, 239, 240, 241, 242, 243, 244, 245, 246, 247, 248, 249, 250, 251, 252, 253, 254, 255, 256, 257, 258, 259, 260, 261, 262, 263, 264, 265, 266, 267, 268, 269, 270, 271, 272, 273, 274, 275, 276, 277, 278, 279, 280, 281, 282, 283, 284, 285, 286, 287, 288, 289, 290, 291, 292, 293, 294, 295, 296, 297, 298, 299, 300, 301, 302, 303, 304, 305, 306, 307, 308, 309, 310, 311, 312, 313, 314, 315, 316, 317, 318, 319, 320, 321, 322, 323, 324, 325, 326, 327, 328, 329, 330, 331, 332, 333, 334, 335, 336, 337, 338, 339, 340, 341, 342, 343, 344, 345, 346, 347, 348, 349, 350, 351, 352, 353, 354, 355, 356, 357, 358, 359, 360, 361, 362, 363, 364, 365, 366, 367, 368, 369, 370, 371, 372, 373, 374, 375, 376, 377, 378, 379, 380, 381, 382, 383, 384, 385, 386, 387, 388, 389, 390, 391, 392, 393, 394, 395, 396, 397, 398, 399, 400, 401, 402, 403, 404, 405, 406, 407, 408, 409, 410, 411, 412, 413, 414, 415, 416, 417, 418, 419, 420, 421, 422, 423, 424, 425, 426, 427, 428, 429, 430, 431, 432, 433, 434, 435, 436, 437, 438, 439, 440, 441, 442, 443, 444, 445, 446, 447, 448, 449, 450, 451, 452, 453, 454, 455, 456, 457, 458, 459, 460, 461, 462, 463, 464, 465, 466, 467, 468, 469, 470, 471, 472, 473, 474, 475, 476, 477, 478, 479, 480, 481, 482, 483, 484, 485, 486, 487, 488, 489, 490, 491, 492, 493, 494, 495, 496, 497, 498, 499, 500, 501, 502, 503, 504, 505, 506, 507, 508, 509, 510, 511, 512, 513, 514],
      "AcquisitionTime": ["093531.885000", "093533.885000", "093535.885000", "093537.885000", "093539.885000", "093541.885000", "093543.885000", "093545.885000", "093547.885000", "093549.885000", "093551.885000", "093553.885000", "093555.885000", "093557.885000", "093559.885000", "093601.885000", "093603.885000", "093605.885000", "093607.885000", "093609.885000", "093611.885000", "093613.885000", "093615.885000", "093617.885000", "093619.885000", "093621.885000", "093623.885000", "093625.885000", "093627.885000", "093629.885000", "093631.885000", "093633.885000", "093635.885000", "093637.885000", "093639.885000", "093641.885000", "093643.885000", "093645.885000", "093647.885000", "093649.885000", "093651.885000", "093653.885000", "093655.885000", "093657.885000", "093659.885000", "093701.885000", "093703.885000", "093705.885000", "093707.885000", "093709.885000", "093711.885000", "093713.885000", "093715.885000", "093717.885000", "093719.885000", "093721.885000", "093723.885000", "093725.885000", "093727.885000", "093729.885000", "093731.885000", "093733.885000", "093735.885000", "093737.885000", "093739.885000", "093741.885000", "093743.885000", "093745.885000", "093747.885000", "093749.885000", "093751.885000", "093753.885000", "093755.885000", "093757.885000", "093759.885000", "093801.885000", "093803.885000", "093805.885000", "093807.885000", "093809.885000", "093811.885000", "093813.885000", "093815.885000", "093817.885000", "093819.885000", "093821.885000", "093823.885000", "093825.885000", "093827.885000", "093829.885000", "093831.885000", "093833.885000", "093835.885000", "093837.885000", "093839.885000", "093841.885000", "093843.885000", "093845.885000", "093847.885000", "093849.885000", "093851.885000", "093853.885000", "093855.885000", "093857.885000", "093859.885000", "093901.885000", "093903.885000", "093905.885000", "093907.885000", "093909.885000", "093911.885000", "093913.885000", "093915.885000", "093917.885000", "093919.885000", "093921.885000", "093923.885000", "093925.885000", "093927.885000", "093929.885000", "093931.885000", "093933.885000", "093935.885000", "093937.885000", "093939.885000", "093941.885000", "093943.885000", "093945.885000", "093947.885000", "093949.885000", "093951.885000", "093953.885000", "093955.885000", "093957.885000", "093959.885000", "094001.885000", "094003.885000", "094005.885000", "094007.885000", "094009.885000", "094011.885000", "094013.885000", "094015.885000", "094017.885000", "094019.885000", "094021.885000", "094023.885000", "094025.885000", "094027.885000", "094029.885000", "094031.885000", "094033.885000", "094035.885000", "094037.885000", "094039.885000", "094041.885000", "094043.885000", "094045.885000", "094047.885000", "094049.885000", "094051.885000", "094053.885000", "094055.885000", "094057.885000", "094059.885000", "094101.885000", "094103.885000", "094105.885000", "094107.885000", "094109.885000", "094111.885000", "094113.885000", "094115.887500", "094117.887500", "094119.887500", "094121.887500", "094123.887500", "094125.887500", "094127.887500", "094129.887500", "094131.887500", "094133.887500", "094135.887500", "094137.887500", "094139.887500", "094141.887500", "094143.887500", "094145.887500", "094147.887500", "094149.887500", "094151.887500", "094153.887500", "094155.887500", "094157.887500", "094159.887500", "094201.887500", "094203.887500", "094205.887500", "094207.887500", "094209.887500", "094211.887500", "094213.887500", "094215.887500", "094217.887500", "094219.887500", "094221.887500", "094223.887500", "094225.887500", "094227.887500", "094229.887500", "094231.887500", "094233.887500", "094235.887500", "094237.887500", "094239.887500", "094241.887500", "094243.887500", "094245.887500", "094247.887500", "094249.887500", "094251.887500", "094253.887500", "094255.887500", "094257.887500", "094259.887500", "094301.887500", "094303.887500", "094305.887500", "094307.887500", "094309.887500", "094311.887500", "094313.887500", "094315.887500", "094317.887500", "094319.887500", "094321.887500", "094323.887500", "094325.887500", "094327.887500", "094329.887500", "094331.887500", "094333.887500", "094335.887500", "094337.887500", "094339.887500", "094341.887500", "094343.887500", "094345.887500", "094347.887500", "094349.887500", "094351.887500", "094353.887500", "094355.887500", "094357.887500", "094359.887500", "094401.887500", "094403.887500", "094405.887500", "094407.887500", "094409.887500", "094411.887500", "094413.887500", "094415.887500", "094417.887500", "094419.887500", "094421.887500", "094423.887500", "094425.887500", "094427.887500", "094429.887500", "094431.887500", "094433.887500", "094435.887500", "094437.887500", "094439.887500", "094441.887500", "094443.887500", "094445.887500", "094447.887500", "094449.887500", "094451.887500", "094453.887500", "094455.887500", "094457.887500", "094459.887500", "094501.887500", "094503.887500", "094505.887500", "094507.887500", "094509.887500", "094511.887500", "094513.887500", "094515.887500", "094517.887500", "094519.887500", "094521.887500", "094523.887500", "094525.887500", "094527.887500", "094529.887500", "094531.887500", "094533.887500", "094535.887500", "094537.887500", "094539.887500", "094541.887500", "094543.887500", "094545.887500", "094547.887500", "094549.887500", "094551.887500", "094553.887500", "094555.887500", "094557.887500", "094559.887500", "094601.887500", "094603.887500", "094605.887500", "094607.887500", "094609.887500", "094611.887500", "094613.887500", "094615.887500", "094617.887500", "094619.887500", "094621.887500", "094623.887500", "094625.887500", "094627.887500", "094629.887500", "094631.887500", "094633.887500", "094635.887500", "094637.887500", "094639.887500", "094641.887500", "094643.887500", "094645.887500", "094647.887500", "094649.887500", "094651.887500", "094653.887500", "094655.887500", "094657.887500", "094659.887500", "094701.887500", "094703.887500", "094705.887500", "094707.887500", "094709.887500", "094711.887500", "094713.887500", "094715.887500", "094717.887500", "094719.887500", "094721.887500", "094723.887500", "094725.887500", "094727.887500", "094729.887500", "094731.887500", "094733.887500", "094735.887500", "094737.887500", "094739.887500", "094741.887500", "094743.887500", "094745.887500", "094747.887500", "094749.887500", "094751.887500", "094753.887500", "094755.887500", "094757.887500", "094759.887500", "094801.887500", "094803.887500", "094805.887500", "094807.887500", "094809.887500", "094811.887500", "094813.887500", "094815.887500", "094817.887500", "094819.887500", "094821.887500", "094823.887500", "094825.887500", "094827.887500", "094829.887500", "094831.887500", "094833.887500", "094835.887500", "094837.887500", "094839.887500", "094841.887500", "094843.887500", "094845.887500", "094847.887500", "094849.887500", "094851.887500", "094853.887500", "094855.887500", "094857.887500", "094859.887500", "094901.887500", "094903.887500", "094905.887500", "094907.887500", "094909.887500", "094911.887500", "094913.887500", "094915.887500", "094917.887500", "094919.887500", "094921.887500", "094923.887500", "094925.887500", "094927.887500", "094929.887500", "094931.887500", "094933.887500", "094935.890000", "094937.890000", "094939.890000", "094941.890000", "094943.890000", "094945.890000", "094947.890000", "094949.890000", "094951.890000", "094953.890000", "094955.890000", "094957.890000", "094959.890000", "095001.890000", "095003.890000", "095005.890000", "095007.890000", "095009.890000", "095011.890000", "095013.890000", "095015.890000", "095017.890000", "095019.890000", "095021.890000", "095023.890000", "095025.890000", "095027.890000", "095029.890000", "095031.890000", "095033.890000", "095035.890000", "095037.890000", "095039.890000", "095041.890000", "095043.890000", "095045.890000", "095047.890000", "095049.890000", "095051.890000", "095053.890000", "095055.890000", "095057.890000", "095059.890000", "095101.890000", "095103.890000", "095105.890000", "095107.890000", "095109.890000", "095111.890000", "095113.890000", "095115.890000", "095117.890000", "095119.890000", "095121.890000", "095123.890000", "095125.890000", "095127.890000", "095129.890000", "095131.890000", "095133.890000", "095135.890000", "095137.890000", "095139.890000", "095141.890000", "095143.890000", "095145.890000", "095147.890000", "095149.890000", "095151.890000", "095153.890000", "095155.890000", "095157.890000", "095159.890000", "095201.890000", "095203.890000", "095205.890000", "095207.890000", "095209.890000", "095211.890000", "095213.890000", "095215.890000", "095217.890000", "095219.890000", "095221.890000", "095223.890000", "095225.890000", "095227.890000", "095229.890000", "095231.890000", "095233.890000", "095235.890000", "095237.890000"],
      "ContentTime": ["093622.054000", "093622.057000", "093622.059000", "093622.061000", "093622.063000", "093622.065000", "093622.067000", "093622.069000", "093622.071000", "093622.073000", "093622.075000", "093622.077000", "093622.079000", "093622.081000", "093622.083000", "093622.085000", "093622.087000", "093622.089000", "093622.091000", "093622.093000", "093622.095000", "093622.097000", "093622.099000", "093622.105000", "093622.107000", "093702.049000", "093702.051000", "093702.053000", "093702.055000", "093702.057000", "093702.059000", "093702.061000", "093702.063000", "093702.065000", "093702.067000", "093702.069000", "093702.071000", "093702.073000", "093702.075000", "093702.077000", "093702.079000", "093702.081000", "093702.083000", "093702.085000", "093702.087000", "093742.049000", "093742.051000", "093742.054000", "093742.056000", "093742.058000", "093742.060000", "093742.062000", "093742.064000", "093742.066000", "093742.068000", "093742.070000", "093742.072000", "093742.074000", "093742.076000", "093742.078000", "093742.080000", "093742.082000", "093742.084000", "093742.086000", "093742.088000", "093822.049000", "093822.056000", "093822.058000", "093822.060000", "093822.062000", "093822.064000", "093822.066000", "093822.068000", "093822.070000", "093822.072000", "093822.074000", "093822.076000", "093822.078000", "093822.080000", "093822.082000", "093822.083000", "093822.086000", "093822.088000", "093822.090000", "093822.092000", "093902.049000", "093902.051000", "093902.053000", "093902.055000", "093902.057000", "093902.059000", "093902.061000", "093902.063000", "093902.065000", "093902.067000", "093902.069000", "093902.071000", "093902.073000", "093902.075000", "093902.077000", "093902.088000", "093902.090000", "093902.092000", "093902.094000", "093902.096000", "093942.049000", "093942.059000", "093942.061000", "093942.063000", "093942.065000", "093942.067000", "093942.069000", "093942.071000", "093942.073000", "093942.075000", "093942.077000", "093942.079000", "093942.081000", "093942.083000", "093942.085000", "093942.087000", "093942.089000", "093942.091000", "093942.093000", "093942.095000", "094022.049000", "094022.051000", "094022.053000", "094022.055000", "094022.057000", "094022.059000", "094022.061000", "094022.063000", "094022.065000", "094022.067000", "094022.069000", "094022.071000", "094022.073000", "094022.075000", "094022.077000", "094022.079000", "094022.083000", "094022.085000", "094022.087000", "094022.089000", "094102.049000", "094102.051000", "094102.053000", "094102.055000", "094102.057000", "094102.059000", "094102.061000", "094102.063000", "094102.065000", "094102.067000", "094102.069000", "094102.071000", "094102.073000", "094102.075000", "094102.077000", "094102.079000", "094102.080000", "094102.082000", "094102.084000", "094102.086000", "094142.049000", "094142.051000", "094142.053000", "094142.055000", "094142.057000", "094142.059000", "094142.061000", "094142.063000", "094142.065000", "094142.067000", "094142.069000", "094142.071000", "094142.073000", "094142.075000", "094142.077000", "094142.079000", "094142.081000", "094142.083000", "094142.085000", "094142.087000", "094222.049000", "094222.051000", "094222.053000", "094222.055000", "094222.057000", "094222.059000", "094222.061000", "094222.063000", "094222.065000", "094222.067000", "094222.069000", "094222.071000", "094222.073000", "094222.075000", "094222.077000", "094222.079000", "094222.081000", "094222.083000", "094222.085000", "094222.087000", "094302.049000", "094302.051000", "094302.053000", "094302.055000", "094302.057000", "094302.059000", "094302.061000", "094302.063000", "094302.065000", "094302.067000", "094302.069000", "094302.071000", "094302.073000", "094302.075000", "094302.077000", "094302.079000", "094302.081000", "094302.083000", "094302.085000", "094302.087000", "094342.049000", "094342.051000", "094342.053000", "094342.055000", "094342.057000", "094342.059000", "094342.061000", "094342.063000", "094342.065000", "094342.067000", "094342.069000", "094342.071000", "094342.073000", "094342.075000", "094342.077000", "094342.079000", "094342.081000", "094342.083000", "094342.085000", "094342.087000", "094422.049000", "094422.051000", "094422.053000", "094422.055000", "094422.057000", "094422.059000", "094422.061000", "094422.063000", "094422.065000", "094422.067000", "094422.069000", "094422.071000", "094422.073000", "094422.075000", "094422.077000", "094422.079000", "094422.081000", "094422.083000", "094422.085000", "094422.086000", "094502.049000", "094502.051000", "094502.053000", "094502.055000", "094502.057000", "094502.059000", "094502.061000", "094502.063000", "094502.065000", "094502.067000", "094502.069000", "094502.071000", "094502.073000", "094502.075000", "094502.077000", "094502.079000", "094502.081000", "094502.083000", "094502.085000", "094502.087000", "094542.049000", "094542.051000", "094542.053000", "094542.055000", "094542.057000", "094542.059000", "094542.061000", "094542.063000", "094542.065000", "094542.067000", "094542.069000", "094542.071000", "094542.073000", "094542.075000", "094542.077000", "094542.079000", "094542.081000", "094542.083000", "094542.085000", "094542.087000", "094622.049000", "094622.051000", "094622.053000", "094622.055000", "094622.057000", "094622.059000", "094622.061000", "094622.063000", "094622.065000", "094622.067000", "094622.069000", "094622.071000", "094622.073000", "094622.075000", "094622.077000", "094622.079000", "094622.081000", "094622.083000", "094622.085000", "094622.087000", "094702.049000", "094702.051000", "094702.053000", "094702.055000", "094702.057000", "094702.059000", "094702.061000", "094702.063000", "094702.065000", "094702.067000", "094702.069000", "094702.071000", "094702.073000", "094702.075000", "094702.077000", "094702.079000", "094702.081000", "094702.083000", "094702.085000", "094702.086000", "094742.049000", "094742.051000", "094742.053000", "094742.055000", "094742.057000", "094742.059000", "094742.061000", "094742.063000", "094742.065000", "094742.067000", "094742.069000", "094742.071000", "094742.073000", "094742.075000", "094742.077000", "094742.079000", "094742.081000", "094742.083000", "094742.085000", "094742.087000", "094822.049000", "094822.051000", "094822.053000", "094822.055000", "094822.057000", "094822.059000", "094822.061000", "094822.063000", "094822.065000", "094822.067000", "094822.069000", "094822.071000", "094822.073000", "094822.075000", "094822.077000", "094822.079000", "094822.081000", "094822.097000", "094822.099000", "094822.101000", "094902.049000", "094902.051000", "094902.053000", "094902.055000", "094902.057000", "094902.059000", "094902.061000", "094902.063000", "094902.065000", "094902.067000", "094902.069000", "094902.071000", "094902.073000", "094902.075000", "094902.077000", "094902.079000", "094902.081000", "094902.083000", "094902.085000", "094902.087000", "094942.049000", "094942.051000", "094942.053000", "094942.055000", "094942.057000", "094942.059000", "094942.061000", "094942.063000", "094942.065000", "094942.067000", "094942.069000", "094942.071000", "094942.073000", "094942.075000", "094942.077000", "094942.079000", "094942.081000", "094942.083000", "094942.085000", "094942.086000", "095022.049000", "095022.051000", "095022.053000", "095022.055000", "095022.057000", "095022.059000", "095022.061000", "095022.063000", "095022.065000", "095022.067000", "095022.069000", "095022.071000", "095022.073000", "095022.075000", "095022.077000", "095022.079000", "095022.081000", "095022.083000", "095022.085000", "095022.087000", "095102.049000", "095102.051000", "095102.054000", "095102.055000", "095102.057000", "095102.059000", "095102.061000", "095102.063000", "095102.065000", "095102.067000", "095102.069000", "095102.071000", "095102.073000", "095102.075000", "095102.077000", "095102.079000", "095102.081000", "095102.083000", "095102.085000", "095102.087000", "095142.049000", "095142.051000", "095142.053000", "095142.055000", "095142.057000", "095142.059000", "095142.061000", "095142.063000", "095142.065000", "095142.067000", "095142.069000", "095142.071000", "095142.073000", "095142.075000", "095142.077000", "095142.079000", "095142.081000", "095142.083000", "095142.084000", "095142.086000", "095222.049000", "095222.051000", "095222.053000", "095222.055000", "095222.057000", "095222.059000", "095222.061000", "095222.063000", "095222.065000", "095222.067000", "095222.069000", "095222.071000", "095222.073000", "095222.075000", "095222.077000", "095222.079000", "095222.081000", "095222.083000", "095222.085000", "095222.087000", "095238.942000", "095238.944000", "095238.946000", "095238.948000", "095238.950000", "095238.952000", "095238.954000", "095238.956000", "095238.958000"],
