{
  "AcquisitionMatrixPE": 64,
  "AcquisitionNumber": 1,
  "AcquisitionTime": "11:08:6.412500",
  "BandwidthPerPixelPhaseEncode": 25.202,
  "BaseResolution": 64,
  "BodyPartExamined": "BRAIN",
  "ConsistencyInfo": "N4_VD13C_LATEST_20121124",
  "ConversionSoftware": "dcm2niix",
  "ConversionSoftwareVersion": "v1.0.20201102",
  "DerivedVendorReportedEchoSpacing": 0.00061999,
  "DeviceSerialNumber": "45758",
  "DwellTime": 4.3e-06,
  "EchoTime": 0.03,
  "EchoTrainLength": 64,
  "EffectiveEchoSpacing": 0.00061999,
  "FlipAngle": 90,
  "ImageOrientationPatientDICOM": [0.999945, 0.0104749, -0.000174416, -0.0104718, 0.999862, 0.0129091],
  "ImageType": [
    "ORIGINAL",
    "PRIMARY",
    "M",
    "ND",
    "MOSAIC"
],
  "ImagingFrequency": 123.2,
  "InPlanePhaseEncodingDirectionDICOM": "ROW",
  "InstitutionAddress": "Street StreetNo,City /652E4B/,District,KR,ZIP",
  "InstitutionName": "DGMIF",
  "InstitutionalDepartmentName": "Department",
  "MRAcquisitionType": "2D",
  "MagneticFieldStrength": 3,
  "Manufacturer": "Siemens",
  "ManufacturersModelName": "Skyra",
  "Modality": "MR",
  "PartialFourier": 1,
  "PatientPosition": "HFS",
  "PercentPhaseFOV": 100,
  "PercentSampling": 100,
  "PhaseEncodingDirection": "i",
  "PhaseEncodingSteps": 64,
  "PhaseResolution": 1,
  "PixelBandwidth": 1815,
  "ProcedureStepDescription": "DGMIF^DGIST_Jeon",
  "ProtocolName": "EPI_DGIST_1",
  "PulseSequenceDetails": "%SiemensSeq%\\ep2d_bold",
  "ReceiveCoilActiveElements": "HC1-6",
  "ReceiveCoilName": "HeadNeck_64",
  "ReconMatrixPE": 64,
  "RepetitionTime": 2,
  "SAR": 0.137216,
  "ScanOptions": "FS",
  "ScanningSequence": "EP",
  "SequenceName": "*epfid2d1_64",
  "SequenceVariant": "SK",
  "SeriesDescription": "EPI_DGIST_1",
  "SeriesNumber": 2,
  "ShimSetting": [-9747, -13585, -8102, 441, -462, 10, -605, 27],
  "SliceThickness": 4,
  "SliceTiming": [0.9875, 0, 1.055, 0.065, 1.12, 0.13, 1.1875, 0.1975, 1.2525, 0.2625, 1.3175, 0.3275, 1.385, 0.395, 1.45, 0.46, 1.5175, 0.5275, 1.5825, 0.5925, 1.6475, 0.6575, 1.715, 0.725, 1.78, 0.79, 1.8475, 0.8575, 1.9125, 0.9225],
  "SoftwareVersions": "syngo MR D13C",
  "SpacingBetweenSlices": 4.8,
  "StationName": "AWP45758",
  "TaskName": "asrt",
  "TotalReadoutTime": 0.0390594,
  "TxRefAmp": 313.727,
  "dcmmeta_affine": [
    [-2.999835252761841, -0.03141535073518753, -0.0014861435629427433, 94.7602767944336],
    [-0.03142472356557846, 2.9995856285095215, 0.06195134297013283, -117.08023071289062],
    [-0.0005232481635175645, -0.03872719407081604, 4.799600124359131, -77.41507720947266],
    [0.0, 0.0, 0.0, 1.0]
],
  "dcmmeta_reorient_transform": [
    [0.0, -1.0, 0.0, 63.0],
    [1.0, 0.0, 0.0, 0.0],
    [0.0, 0.0, 1.0, 0.0],
    [0.0, 0.0, 0.0, 1.0]
],
  "dcmmeta_shape": [64, 64, 30, 514],
  "dcmmeta_slice_dim": 2,
  "dcmmeta_version": 0.6,
  "global": {
    "const": {
      "AcquisitionMatrix": [0, 64, 64, 0],
      "AngioFlag": "N",
      "BitsAllocated": 16,
      "BitsStored": 12,
      "BodyPartExamined": "BRAIN",
      "Columns": 384,
      "EchoNumbers": 1,
      "EchoTime": 30.0,
      "EchoTrainLength": 64,
      "FlipAngle": 90.0,
      "HighBit": 11,
      "ImageOrientationPatient": [0.99994512143356, 0.01047490812707, -0.0001744160621, -0.0104717840353, 0.99986183935329, 0.01290906441892],
      "ImagePositionPatient": [-567.72831099488, -556.85529749656, -85.967519819276],
      "ImageType": [
        "ORIGINAL",
        "PRIMARY",
        "M",
        "ND",
        "MOSAIC"
],
      "ImagedNucleus": "1H",
      "ImagingFrequency": 123.200198,
      "InPlanePhaseEncodingDirection": "ROW",
      "MRAcquisitionType": "2D",
      "MagneticFieldStrength": 3.0,
      "Manufacturer": "SIEMENS",
      "ManufacturerModelName": "Skyra",
      "Modality": "MR",
      "NumberOfAverages": 1.0,
      "NumberOfPhaseEncodingSteps": 64,
      "PercentPhaseFieldOfView": 100.0,
      "PercentSampling": 100.0,
      "PerformedProcedureStepStartTime": "110314.658000",
      "PhotometricInterpretation": "MONOCHROME2",
      "PixelBandwidth": 1815.0,
      "PixelRepresentation": 0,
      "PixelSpacing": [3.0, 3.0],
      "ProtocolName": "EPI_DGIST_1",
      "RepetitionTime": 2000.0,
      "Rows": 384,
      "SAR": 0.13721567385794,
      "SamplesPerPixel": 1,
      "ScanOptions": "FS",
      "ScanningSequence": "EP",
      "SequenceName": "*epfid2d1_64",
      "SequenceVariant": "SK",
      "SeriesDescription": "EPI_DGIST_1",
      "SeriesNumber": 2,
      "SeriesTime": "110856.845000",
      "SliceLocation": -78.949062078062,
      "SliceThickness": 4.0,
      "SmallestImagePixelValue": 0,
      "SoftwareVersions": "syngo MR D13C",
      "SpacingBetweenSlices": 4.8000000443969,
      "SpecificCharacterSet": "ISO_IR 100",
      "StudyID": "1",
      "StudyTime": "110314.595000",
      "TimeOfLastCalibration": ["123723.000000", "123723.000000"],
      "TransmitCoilName": "Body",
      "VariableFlipAngleFlag": "N",
      "WindowCenterWidthExplanation": "Algo1",
      "dBdt": 0.0},
    "slices": {}
  },
  "time": {
    "samples": {
      "AcquisitionNumber": [1, 2, 3, 4, 5, 6, 7, 8, 9, 10, 11, 12, 13, 14, 15, 16, 17, 18, 19, 20, 21, 22, 23, 24, 25, 26, 27, 28, 29, 30, 31, 32, 33, 34, 35, 36, 37, 38, 39, 40, 41, 42, 43, 44, 45, 46, 47, 48, 49, 50, 51, 52, 53, 54, 55, 56, 57, 58, 59, 60, 61, 62, 63, 64, 65, 66, 67, 68, 69, 70, 71, 72, 73, 74, 75, 76, 77, 78, 79, 80, 81, 82, 83, 84, 85, 86, 87, 88, 89, 90, 91, 92, 93, 94, 95, 96, 97, 98, 99, 100, 101, 102, 103, 104, 105, 106, 107, 108, 109, 110, 111, 112, 113, 114, 115, 116, 117, 118, 119, 120, 121, 122, 123, 124, 125, 126, 127, 128, 129, 130, 131, 132, 133, 134, 135, 136, 137, 138, 139, 140, 141, 142, 143, 144, 145, 146, 147, 148, 149, 150, 151, 152, 153, 154, 155, 156, 157, 158, 159, 160, 161, 162, 163, 164, 165, 166, 167, 168, 169, 170, 171, 172, 173, 174, 175, 176, 177, 178, 179, 180, 181, 182, 183, 184, 185, 186, 187, 188, 189, 190, 191, 192, 193, 194, 195, 196, 197, 198, 199, 200, 201, 202, 203, 204, 205, 206, 207, 208, 209, 210, 211, 212, 213, 214, 215, 216, 217, 218, 219, 220, 221, 222, 223, 224, 225, 226, 227, 228, 229, 230, 231, 232, 233, 234, 235, 236, 237, 238, 239, 240, 241, 242, 243, 244, 245, 246, 247, 248, 249, 250, 251, 252, 253, 254, 255, 256, 257, 258, 259, 260, 261, 262, 263, 264, 265, 266, 267, 268, 269, 270, 271, 272, 273, 274, 275, 276, 277, 278, 279, 280, 281, 282, 283, 284, 285, 286, 287, 288, 289, 290, 291, 292, 293, 294, 295, 296, 297, 298, 299, 300, 301, 302, 303, 304, 305, 306, 307, 308, 309, 310, 311, 312, 313, 314, 315, 316, 317, 318, 319, 320, 321, 322, 323, 324, 325, 326, 327, 328, 329, 330, 331, 332, 333, 334, 335, 336, 337, 338, 339, 340, 341, 342, 343, 344, 345, 346, 347, 348, 349, 350, 351, 352, 353, 354, 355, 356, 357, 358, 359, 360, 361, 362, 363, 364, 365, 366, 367, 368, 369, 370, 371, 372, 373, 374, 375, 376, 377, 378, 379, 380, 381, 382, 383, 384, 385, 386, 387, 388, 389, 390, 391, 392, 393, 394, 395, 396, 397, 398, 399, 400, 401, 402, 403, 404, 405, 406, 407, 408, 409, 410, 411, 412, 413, 414, 415, 416, 417, 418, 419, 420, 421, 422, 423, 424, 425, 426, 427, 428, 429, 430, 431, 432, 433, 434, 435, 436, 437, 438, 439, 440, 441, 442, 443, 444, 445, 446, 447, 448, 449, 450, 451, 452, 453, 454, 455, 456, 457, 458, 459, 460, 461, 462, 463, 464, 465, 466, 467, 468, 469, 470, 471, 472, 473, 474, 475, 476, 477, 478, 479, 480, 481, 482, 483, 484, 485, 486, 487, 488, 489, 490, 491, 492, 493, 494, 495, 496, 497, 498, 499, 500, 501, 502, 503, 504, 505, 506, 507, 508, 509, 510, 511, 512, 513, 514],
      "AcquisitionTime": ["110806.412500", "110808.412500", "110810.412500", "110812.412500", "110814.412500", "110816.412500", "110818.412500", "110820.412500", "110822.412500", "110824.412500", "110826.412500", "110828.412500", "110830.412500", "110832.415000", "110834.415000", "110836.415000", "110838.415000", "110840.415000", "110842.415000", "110844.415000", "110846.415000", "110848.415000", "110850.415000", "110852.415000", "110854.415000", "110856.415000", "110858.415000", "110900.415000", "110902.415000", "110904.415000", "110906.415000", "110908.415000", "110910.415000", "110912.415000", "110914.415000", "110916.415000", "110918.415000", "110920.415000", "110922.415000", "110924.415000", "110926.415000", "110928.415000", "110930.415000", "110932.415000", "110934.415000", "110936.415000", "110938.415000", "110940.415000", "110942.415000", "110944.415000", "110946.415000", "110948.415000", "110950.415000", "110952.415000", "110954.415000", "110956.415000", "110958.415000", "111000.415000", "111002.415000", "111004.415000", "111006.415000", "111008.415000", "111010.415000", "111012.415000", "111014.415000", "111016.415000", "111018.415000", "111020.415000", "111022.415000", "111024.415000", "111026.415000", "111028.415000", "111030.415000", "111032.415000", "111034.415000", "111036.415000", "111038.415000", "111040.415000", "111042.415000", "111044.415000", "111046.415000", "111048.415000", "111050.415000", "111052.415000", "111054.415000", "111056.415000", "111058.415000", "111100.415000", "111102.415000", "111104.415000", "111106.415000", "111108.415000", "111110.415000", "111112.415000", "111114.415000", "111116.415000", "111118.415000", "111120.415000", "111122.415000", "111124.415000", "111126.415000", "111128.415000", "111130.415000", "111132.415000", "111134.415000", "111136.415000", "111138.415000", "111140.415000", "111142.415000", "111144.415000", "111146.415000", "111148.415000", "111150.415000", "111152.415000", "111154.415000", "111156.415000", "111158.415000", "111200.415000", "111202.415000", "111204.415000", "111206.415000", "111208.415000", "111210.415000", "111212.415000", "111214.415000", "111216.415000", "111218.415000", "111220.415000", "111222.415000", "111224.415000", "111226.415000", "111228.415000", "111230.415000", "111232.415000", "111234.415000", "111236.415000", "111238.415000", "111240.415000", "111242.415000", "111244.415000", "111246.415000", "111248.415000", "111250.415000", "111252.415000", "111254.415000", "111256.415000", "111258.415000", "111300.415000", "111302.415000", "111304.415000", "111306.415000", "111308.415000", "111310.415000", "111312.415000", "111314.415000", "111316.415000", "111318.415000", "111320.415000", "111322.415000", "111324.415000", "111326.415000", "111328.415000", "111330.415000", "111332.415000", "111334.415000", "111336.415000", "111338.415000", "111340.415000", "111342.415000", "111344.415000", "111346.415000", "111348.415000", "111350.415000", "111352.415000", "111354.415000", "111356.415000", "111358.415000", "111400.415000", "111402.415000", "111404.415000", "111406.415000", "111408.415000", "111410.415000", "111412.415000", "111414.415000", "111416.415000", "111418.415000", "111420.415000", "111422.415000", "111424.415000", "111426.415000", "111428.415000", "111430.415000", "111432.415000", "111434.415000", "111436.415000", "111438.415000", "111440.415000", "111442.415000", "111444.415000", "111446.415000", "111448.415000", "111450.415000", "111452.415000", "111454.415000", "111456.415000", "111458.415000", "111500.415000", "111502.415000", "111504.415000", "111506.415000", "111508.415000", "111510.415000", "111512.415000", "111514.415000", "111516.415000", "111518.415000", "111520.415000", "111522.415000", "111524.415000", "111526.415000", "111528.415000", "111530.415000", "111532.415000", "111534.415000", "111536.415000", "111538.415000", "111540.415000", "111542.415000", "111544.415000", "111546.415000", "111548.415000", "111550.415000", "111552.415000", "111554.415000", "111556.415000", "111558.415000", "111600.415000", "111602.415000", "111604.415000", "111606.415000", "111608.415000", "111610.415000", "111612.415000", "111614.415000", "111616.415000", "111618.415000", "111620.415000", "111622.415000", "111624.415000", "111626.415000", "111628.415000", "111630.415000", "111632.415000", "111634.415000", "111636.415000", "111638.415000", "111640.415000", "111642.415000", "111644.415000", "111646.415000", "111648.415000", "111650.415000", "111652.417500", "111654.417500", "111656.417500", "111658.417500", "111700.417500", "111702.417500", "111704.417500", "111706.417500", "111708.417500", "111710.417500", "111712.417500", "111714.417500", "111716.417500", "111718.417500", "111720.417500", "111722.417500", "111724.417500", "111726.417500", "111728.417500", "111730.417500", "111732.417500", "111734.417500", "111736.417500", "111738.417500", "111740.417500", "111742.417500", "111744.417500", "111746.417500", "111748.417500", "111750.417500", "111752.417500", "111754.417500", "111756.417500", "111758.417500", "111800.417500", "111802.417500", "111804.417500", "111806.417500", "111808.417500", "111810.417500", "111812.417500", "111814.417500", "111816.417500", "111818.417500", "111820.417500", "111822.417500", "111824.417500", "111826.417500", "111828.417500", "111830.417500", "111832.417500", "111834.417500", "111836.417500", "111838.417500", "111840.417500", "111842.417500", "111844.417500", "111846.417500", "111848.417500", "111850.417500", "111852.417500", "111854.417500", "111856.417500", "111858.417500", "111900.417500", "111902.417500", "111904.417500", "111906.417500", "111908.417500", "111910.417500", "111912.417500", "111914.417500", "111916.417500", "111918.417500", "111920.417500", "111922.417500", "111924.417500", "111926.417500", "111928.417500", "111930.417500", "111932.417500", "111934.417500", "111936.417500", "111938.417500", "111940.417500", "111942.417500", "111944.417500", "111946.417500", "111948.417500", "111950.417500", "111952.417500", "111954.417500", "111956.417500", "111958.417500", "112000.417500", "112002.417500", "112004.417500", "112006.417500", "112008.417500", "112010.417500", "112012.417500", "112014.417500", "112016.417500", "112018.417500", "112020.417500", "112022.417500", "112024.417500", "112026.417500", "112028.417500", "112030.417500", "112032.417500", "112034.417500", "112036.417500", "112038.417500", "112040.417500", "112042.417500", "112044.417500", "112046.417500", "112048.417500", "112050.417500", "112052.417500", "112054.417500", "112056.417500", "112058.417500", "112100.417500", "112102.417500", "112104.417500", "112106.417500", "112108.417500", "112110.417500", "112112.417500", "112114.417500", "112116.417500", "112118.417500", "112120.417500", "112122.417500", "112124.417500", "112126.417500", "112128.417500", "112130.417500", "112132.417500", "112134.417500", "112136.417500", "112138.417500", "112140.417500", "112142.417500", "112144.417500", "112146.417500", "112148.417500", "112150.417500", "112152.417500", "112154.417500", "112156.417500", "112158.417500", "112200.417500", "112202.417500", "112204.417500", "112206.417500", "112208.417500", "112210.417500", "112212.417500", "112214.417500", "112216.417500", "112218.417500", "112220.417500", "112222.417500", "112224.417500", "112226.417500", "112228.417500", "112230.417500", "112232.417500", "112234.417500", "112236.417500", "112238.417500", "112240.417500", "112242.417500", "112244.417500", "112246.417500", "112248.417500", "112250.417500", "112252.417500", "112254.417500", "112256.417500", "112258.417500", "112300.417500", "112302.417500", "112304.417500", "112306.417500", "112308.417500", "112310.417500", "112312.417500", "112314.417500", "112316.417500", "112318.417500", "112320.417500", "112322.417500", "112324.417500", "112326.417500", "112328.417500", "112330.417500", "112332.417500", "112334.417500", "112336.417500", "112338.417500", "112340.417500", "112342.417500", "112344.417500", "112346.417500", "112348.417500", "112350.417500", "112352.417500", "112354.417500", "112356.417500", "112358.417500", "112400.417500", "112402.417500", "112404.417500", "112406.417500", "112408.417500", "112410.417500", "112412.417500", "112414.417500", "112416.417500", "112418.417500", "112420.417500", "112422.417500", "112424.417500", "112426.417500", "112428.417500", "112430.417500", "112432.417500", "112434.417500", "112436.417500", "112438.417500", "112440.417500", "112442.417500", "112444.417500", "112446.417500", "112448.417500", "112450.417500", "112452.417500", "112454.417500", "112456.417500", "112458.417500", "112500.417500", "112502.417500", "112504.417500", "112506.417500", "112508.417500", "112510.417500", "112512.420000"],
      "ContentTime": ["110856.848000", "110856.850000", "110856.852000", "110856.854000", "110856.856000", "110856.858000", "110856.860000", "110856.862000", "110856.864000", "110856.866000", "110856.868000", "110856.870000", "110856.872000", "110856.874000", "110856.876000", "110856.882000", "110856.884000", "110856.886000", "110856.888000", "110856.890000", "110856.892000", "110856.894000", "110856.896000", "110856.900000", "110856.902000", "110936.843000", "110936.845000", "110936.847000", "110936.849000", "110936.851000", "110936.853000", "110936.855000", "110936.857000", "110936.859000", "110936.861000", "110936.863000", "110936.865000", "110936.867000", "110936.868000", "110936.870000", "110936.872000", "110936.874000", "110936.876000", "110936.878000", "110936.880000", "111016.843000", "111016.845000", "111016.847000", "111016.849000", "111016.851000", "111016.853000", "111016.855000", "111016.857000", "111016.859000", "111016.861000", "111016.863000", "111016.865000", "111016.867000", "111016.868000", "111016.870000", "111016.872000", "111016.874000", "111016.876000", "111016.878000", "111016.880000", "111056.843000", "111056.845000", "111056.847000", "111056.849000", "111056.851000", "111056.853000", "111056.855000", "111056.857000", "111056.859000", "111056.861000", "111056.863000", "111056.865000", "111056.867000", "111056.868000", "111056.870000", "111056.872000", "111056.874000", "111056.876000", "111056.878000", "111056.880000", "111136.843000", "111136.845000", "111136.847000", "111136.853000", "111136.855000", "111136.857000", "111136.859000", "111136.860000", "111136.862000", "111136.864000", "111136.866000", "111136.868000", "111136.870000", "111136.872000", "111136.874000", "111136.876000", "111136.878000", "111136.880000", "111136.882000", "111136.884000", "111216.843000", "111216.845000", "111216.847000", "111216.849000", "111216.851000", "111216.853000", "111216.855000", "111216.857000", "111216.859000", "111216.861000", "111216.863000", "111216.865000", "111216.867000", "111216.869000", "111216.871000", "111216.873000", "111216.875000", "111216.876000", "111216.878000", "111216.880000", "111256.843000", "111256.845000", "111256.847000", "111256.849000", "111256.851000", "111256.853000", "111256.855000", "111256.857000", "111256.859000", "111256.861000", "111256.863000", "111256.865000", "111256.867000", "111256.869000", "111256.871000", "111256.873000", "111256.875000", "111256.876000", "111256.878000", "111256.880000", "111336.843000", "111336.845000", "111336.847000", "111336.849000", "111336.851000", "111336.853000", "111336.855000", "111336.857000", "111336.859000", "111336.861000", "111336.863000", "111336.865000", "111336.867000", "111336.869000", "111336.871000", "111336.873000", "111336.874000", "111336.876000", "111336.878000", "111336.880000", "111416.843000", "111416.845000", "111416.847000", "111416.849000", "111416.851000", "111416.853000", "111416.855000", "111416.857000", "111416.859000", "111416.861000", "111416.863000", "111416.865000", "111416.867000", "111416.869000", "111416.871000", "111416.873000", "111416.875000", "111416.877000", "111416.878000", "111416.880000", "111456.843000", "111456.845000", "111456.847000", "111456.849000", "111456.851000", "111456.853000", "111456.855000", "111456.861000", "111456.863000", "111456.865000", "111456.867000", "111456.868000", "111456.870000", "111456.872000", "111456.874000", "111456.876000", "111456.878000", "111456.880000", "111456.882000", "111456.884000", "111536.843000", "111536.845000", "111536.847000", "111536.849000", "111536.851000", "111536.853000", "111536.855000", "111536.857000", "111536.859000", "111536.861000", "111536.863000", "111536.865000", "111536.867000", "111536.869000", "111536.871000", "111536.873000", "111536.875000", "111536.877000", "111536.878000", "111536.880000", "111616.843000", "111616.845000", "111616.847000", "111616.849000", "111616.851000", "111616.853000", "111616.855000", "111616.857000", "111616.859000", "111616.861000", "111616.863000", "111616.865000", "111616.867000", "111616.869000", "111616.871000", "111616.873000", "111616.875000", "111616.877000", "111616.878000", "111616.880000", "111656.843000", "111656.845000", "111656.847000", "111656.849000", "111656.851000", "111656.853000", "111656.855000", "111656.857000", "111656.859000", "111656.861000", "111656.863000", "111656.865000", "111656.867000", "111656.869000", "111656.871000", "111656.873000", "111656.875000", "111656.876000", "111656.878000", "111656.880000", "111736.843000", "111736.845000", "111736.847000", "111736.849000", "111736.851000", "111736.853000", "111736.855000", "111736.857000", "111736.859000", "111736.861000", "111736.863000", "111736.875000", "111736.877000", "111736.879000", "111736.881000", "111736.883000", "111736.885000", "111736.887000", "111736.889000", "111736.891000", "111816.842000", "111816.844000", "111816.846000", "111816.848000", "111816.850000", "111816.852000", "111816.854000", "111816.856000", "111816.858000", "111816.860000", "111816.862000", "111816.864000", "111816.866000", "111816.868000", "111816.870000", "111816.872000", "111816.873000", "111816.875000", "111816.877000", "111816.879000", "111856.843000", "111856.845000", "111856.847000", "111856.849000", "111856.851000", "111856.853000", "111856.855000", "111856.857000", "111856.859000", "111856.861000", "111856.863000", "111856.865000", "111856.867000", "111856.869000", "111856.871000", "111856.873000", "111856.875000", "111856.877000", "111856.879000", "111856.881000", "111936.843000", "111936.845000", "111936.847000", "111936.849000", "111936.851000", "111936.853000", "111936.855000", "111936.857000", "111936.859000", "111936.861000", "111936.863000", "111936.865000", "111936.867000", "111936.869000", "111936.871000", "111936.873000", "111936.875000", "111936.877000", "111936.879000", "111936.880000", "112016.843000", "112016.845000", "112016.847000", "112016.849000", "112016.851000", "112016.853000", "112016.855000", "112016.857000", "112016.859000", "112016.861000", "112016.863000", "112016.865000", "112016.867000", "112016.869000", "112016.871000", "112016.873000", "112016.875000", "112016.877000", "112016.878000", "112016.880000", "112056.843000", "112056.845000", "112056.847000", "112056.849000", "112056.851000", "112056.853000", "112056.855000", "112056.857000", "112056.859000", "112056.861000", "112056.863000", "112056.865000", "112056.867000", "112056.869000", "112056.871000", "112056.873000", "112056.875000", "112056.877000", "112056.879000", "112056.880000", "112136.843000", "112136.845000", "112136.847000", "112136.849000", "112136.851000", "112136.853000", "112136.855000", "112136.857000", "112136.859000", "112136.861000", "112136.863000", "112136.865000", "112136.867000", "112136.869000", "112136.870000", "112136.872000", "112136.874000", "112136.876000", "112136.878000", "112136.880000", "112216.843000", "112216.845000", "112216.847000", "112216.849000", "112216.851000", "112216.853000", "112216.855000", "112216.857000", "112216.859000", "112216.861000", "112216.863000", "112216.865000", "112216.867000", "112216.869000", "112216.871000", "112216.873000", "112216.875000", "112216.877000", "112216.879000", "112216.880000", "112256.842000", "112256.844000", "112256.846000", "112256.848000", "112256.850000", "112256.852000", "112256.854000", "112256.856000", "112256.858000", "112256.860000", "112256.862000", "112256.864000", "112256.866000", "112256.868000", "112256.870000", "112256.872000", "112256.874000", "112256.876000", "112256.877000", "112256.879000", "112336.843000", "112336.846000", "112336.847000", "112336.849000", "112336.851000", "112336.853000", "112336.855000", "112336.857000", "112336.859000", "112336.861000", "112336.863000", "112336.865000", "112336.867000", "112336.869000", "112336.871000", "112336.873000", "112336.875000", "112336.877000", "112336.879000", "112336.881000", "112416.843000", "112416.845000", "112416.847000", "112416.849000", "112416.851000", "112416.853000", "112416.855000", "112416.857000", "112416.859000", "112416.861000", "112416.863000", "112416.865000", "112416.867000", "112416.869000", "112416.871000", "112416.873000", "112416.875000", "112416.877000", "112416.879000", "112416.880000", "112456.843000", "112456.845000", "112456.847000", "112456.849000", "112456.851000", "112456.853000", "112456.855000", "112456.857000", "112456.859000", "112456.861000", "112456.863000", "112456.865000", "112456.867000", "112456.869000", "112456.871000", "112456.873000", "112456.875000", "112456.877000", "112456.878000", "112456.880000", "112513.723000", "112513.725000", "112513.727000", "112513.729000", "112513.731000", "112513.744000", "112513.747000", "112513.749000", "112513.751000"],
