{
  "AcquisitionMatrixPE": 64,
  "AcquisitionNumber": 1,
  "AcquisitionTime": "09:44:45.002500",
  "BandwidthPerPixelPhaseEncode": 25.202,
  "BaseResolution": 64,
  "BodyPartExamined": "BRAIN",
  "ConsistencyInfo": "N4_VD13C_LATEST_20121124",
  "ConversionSoftware": "dcm2niix",
  "ConversionSoftwareVersion": "v1.0.20201102",
  "DerivedVendorReportedEchoSpacing": 0.00061999,
  "DeviceSerialNumber": "45758",
  "DwellTime": 4.3e-06,
  "EchoTime": 0.03,
  "EchoTrainLength": 64,
  "EffectiveEchoSpacing": 0.00061999,
  "FlipAngle": 90,
  "ImageOrientationPatientDICOM": [0.999526, -0.00789953, -0.0297631, 0.00697812, 0.999497, -0.0309357],
  "ImageType": [
    "ORIGINAL",
    "PRIMARY",
    "M",
    "ND",
    "MOSAIC"
],
  "ImagingFrequency": 123.2,
  "InPlanePhaseEncodingDirectionDICOM": "ROW",
  "InstitutionAddress": "Street StreetNo,City /652E4B/,District,KR,ZIP",
  "InstitutionName": "DGMIF",
  "InstitutionalDepartmentName": "Department",
  "MRAcquisitionType": "2D",
  "MagneticFieldStrength": 3,
  "Manufacturer": "Siemens",
  "ManufacturersModelName": "Skyra",
  "Modality": "MR",
  "PartialFourier": 1,
  "PatientPosition": "HFS",
  "PercentPhaseFOV": 100,
  "PercentSampling": 100,
  "PhaseEncodingDirection": "i",
  "PhaseEncodingSteps": 64,
  "PhaseResolution": 1,
  "PixelBandwidth": 1815,
  "ProcedureStepDescription": "DGMIF^DGIST_Jeon",
  "ProtocolName": "EPI_DGIST_1",
  "PulseSequenceDetails": "%SiemensSeq%\\ep2d_bold",
  "ReceiveCoilActiveElements": "HC1-7",
  "ReceiveCoilName": "HeadNeck_64",
  "ReconMatrixPE": 64,
  "RepetitionTime": 2,
  "SAR": 0.142334,
  "ScanOptions": "FS",
  "ScanningSequence": "EP",
  "SequenceName": "*epfid2d1_64",
  "SequenceVariant": "SK",
  "SeriesDescription": "EPI_DGIST_1",
  "SeriesNumber": 2,
  "ShimSetting": [-9728, -13687, -8269, 380, -263, 15, -434, -175],
  "SliceThickness": 4,
  "SliceTiming": [0.99, 0, 1.055, 0.065, 1.12, 0.13, 1.1875, 0.1975, 1.2525, 0.2625, 1.32, 0.33, 1.385, 0.395, 1.45, 0.46, 1.5175, 0.5275, 1.5825, 0.5925, 1.65, 0.66, 1.715, 0.725, 1.78, 0.79, 1.8475, 0.8575, 1.9125, 0.9225],
  "SoftwareVersions": "syngo MR D13C",
  "SpacingBetweenSlices": 4.8,
  "StationName": "AWP45758",
  "TaskName": "asrt",
  "TotalReadoutTime": 0.0390594,
  "TxRefAmp": 329.686,
  "dcmmeta_affine": [
    [-2.998577356338501, 0.02093435823917389, -0.14396418631076813, 94.10106658935547],
    [0.023698585107922554, 2.998491048812866, -0.14742423593997955, -115.647705078125],
    [-0.08928939700126648, 0.09280723333358765, 4.795575141906738, -70.85430908203125],
    [0.0, 0.0, 0.0, 1.0]
],
  "dcmmeta_reorient_transform": [
    [0.0, -1.0, 0.0, 63.0],
    [1.0, 0.0, 0.0, 0.0],
    [0.0, 0.0, 1.0, 0.0],
    [0.0, 0.0, 0.0, 1.0]
],
  "dcmmeta_shape": [64, 64, 30, 514],
  "dcmmeta_slice_dim": 2,
  "dcmmeta_version": 0.6,
  "global": {
    "const": {
      "AcquisitionMatrix": [0, 64, 64, 0],
      "AngioFlag": "N",
      "BitsAllocated": 16,
      "BitsStored": 12,
      "BodyPartExamined": "BRAIN",
      "Columns": 384,
      "EchoNumbers": 1,
      "EchoTime": 30.0,
      "EchoTrainLength": 64,
      "FlipAngle": 90.0,
      "HighBit": 11,
      "ImageOrientationPatient": [0.99952576427359, -0.0078995281136, -0.0297631317048, 0.00697811939288, 0.99949701626172, -0.0309357452416],
      "ImagePositionPatient": [-578.54179353715, -549.22402837171, -35.871995829064],
      "ImageType": [
        "ORIGINAL",
        "PRIMARY",
        "M",
        "ND",
        "MOSAIC"
],
      "ImagedNucleus": "1H",
      "ImagingFrequency": 123.200175,
      "InPlanePhaseEncodingDirection": "ROW",
      "MRAcquisitionType": "2D",
      "MagneticFieldStrength": 3.0,
      "Manufacturer": "SIEMENS",
      "ManufacturerModelName": "Skyra",
      "Modality": "MR",
      "NumberOfAverages": 1.0,
      "NumberOfPhaseEncodingSteps": 64,
      "PercentPhaseFieldOfView": 100.0,
      "PercentSampling": 100.0,
      "PerformedProcedureStepStartTime": "091539.751000",
      "PhotometricInterpretation": "MONOCHROME2",
      "PixelBandwidth": 1815.0,
      "PixelRepresentation": 0,
      "PixelSpacing": [3.0, 3.0],
      "ProtocolName": "EPI_DGIST_1",
      "RepetitionTime": 2000.0,
      "Rows": 384,
      "SAR": 0.14233370368887,
      "SamplesPerPixel": 1,
      "ScanOptions": "FS",
      "ScanningSequence": "EP",
      "SequenceName": "*epfid2d1_64",
      "SequenceVariant": "SK",
      "SeriesDescription": "EPI_DGIST_1",
      "SeriesNumber": 2,
      "SeriesTime": "094532.545000",
      "SliceLocation": -70.059392683842,
      "SliceThickness": 4.0,
      "SmallestImagePixelValue": 0,
      "SoftwareVersions": "syngo MR D13C",
      "SpacingBetweenSlices": 4.8000000229823,
      "SpecificCharacterSet": "ISO_IR 100",
      "StudyID": "1",
      "StudyTime": "091539.635000",
      "TimeOfLastCalibration": ["123723.000000", "123723.000000"],
      "TransmitCoilName": "Body",
      "VariableFlipAngleFlag": "N",
      "WindowCenterWidthExplanation": "Algo1",
      "dBdt": 0.0},
    "slices": {}
  },
  "time": {
    "samples": {
      "AcquisitionNumber": [1, 2, 3, 4, 5, 6, 7, 8, 9, 10, 11, 12, 13, 14, 15, 16, 17, 18, 19, 20, 21, 22, 23, 24, 25, 26, 27, 28, 29, 30, 31, 32, 33, 34, 35, 36, 37, 38, 39, 40, 41, 42, 43, 44, 45, 46, 47, 48, 49, 50, 51, 52, 53, 54, 55, 56, 57, 58, 59, 60, 61, 62, 63, 64, 65, 66, 67, 68, 69, 70, 71, 72, 73, 74, 75, 76, 77, 78, 79, 80, 81, 82, 83, 84, 85, 86, 87, 88, 89, 90, 91, 92, 93, 94, 95, 96, 97, 98, 99, 100, 101, 102, 103, 104, 105, 106, 107, 108, 109, 110, 111, 112, 113, 114, 115, 116, 117, 118, 119, 120, 121, 122, 123, 124, 125, 126, 127, 128, 129, 130, 131, 132, 133, 134, 135, 136, 137, 138, 139, 140, 141, 142, 143, 144, 145, 146, 147, 148, 149, 150, 151, 152, 153, 154, 155, 156, 157, 158, 159, 160, 161, 162, 163, 164, 165, 166, 167, 168, 169, 170, 171, 172, 173, 174, 175, 176, 177, 178, 179, 180, 181, 182, 183, 184, 185, 186, 187, 188, 189, 190, 191, 192, 193, 194, 195, 196, 197, 198, 199, 200, 201, 202, 203, 204, 205, 206, 207, 208, 209, 210, 211, 212, 213, 214, 215, 216, 217, 218, 219, 220, 221, 222, 223, 224, 225, 226, 227, 228, 229, 230, 231, 232, 233, 234, 235, 236, 237, 238, 239, 240, 241, 242, 243, 244, 245, 246, 247, 248, 249, 250, 251, 252, 253, 254, 255, 256, 257, 258, 259, 260, 261, 262, 263, 264, 265, 266, 267, 268, 269, 270, 271, 272, 273, 274, 275, 276, 277, 278, 279, 280, 281, 282, 283, 284, 285, 286, 287, 288, 289, 290, 291, 292, 293, 294, 295, 296, 297, 298, 299, 300, 301, 302, 303, 304, 305, 306, 307, 308, 309, 310, 311, 312, 313, 314, 315, 316, 317, 318, 319, 320, 321, 322, 323, 324, 325, 326, 327, 328, 329, 330, 331, 332, 333, 334, 335, 336, 337, 338, 339, 340, 341, 342, 343, 344, 345, 346, 347, 348, 349, 350, 351, 352, 353, 354, 355, 356, 357, 358, 359, 360, 361, 362, 363, 364, 365, 366, 367, 368, 369, 370, 371, 372, 373, 374, 375, 376, 377, 378, 379, 380, 381, 382, 383, 384, 385, 386, 387, 388, 389, 390, 391, 392, 393, 394, 395, 396, 397, 398, 399, 400, 401, 402, 403, 404, 405, 406, 407, 408, 409, 410, 411, 412, 413, 414, 415, 416, 417, 418, 419, 420, 421, 422, 423, 424, 425, 426, 427, 428, 429, 430, 431, 432, 433, 434, 435, 436, 437, 438, 439, 440, 441, 442, 443, 444, 445, 446, 447, 448, 449, 450, 451, 452, 453, 454, 455, 456, 457, 458, 459, 460, 461, 462, 463, 464, 465, 466, 467, 468, 469, 470, 471, 472, 473, 474, 475, 476, 477, 478, 479, 480, 481, 482, 483, 484, 485, 486, 487, 488, 489, 490, 491, 492, 493, 494, 495, 496, 497, 498, 499, 500, 501, 502, 503, 504, 505, 506, 507, 508, 509, 510, 511, 512, 513, 514],
      "AcquisitionTime": ["094445.002500", "094447.002500", "094449.002500", "094451.002500", "094453.002500", "094455.002500", "094457.002500", "094459.002500", "094501.002500", "094503.002500", "094505.002500", "094507.002500", "094509.002500", "094511.002500", "094513.002500", "094515.002500", "094517.002500", "094519.002500", "094521.002500", "094523.002500", "094525.002500", "094527.002500", "094529.002500", "094531.002500", "094533.002500", "094535.002500", "094537.002500", "094539.002500", "094541.002500", "094543.002500", "094545.002500", "094547.002500", "094549.002500", "094551.002500", "094553.002500", "094555.002500", "094557.002500", "094559.002500", "094601.002500", "094603.002500", "094605.002500", "094607.002500", "094609.002500", "094611.002500", "094613.002500", "094615.002500", "094617.002500", "094619.002500", "094621.002500", "094623.002500", "094625.002500", "094627.002500", "094629.002500", "094631.002500", "094633.002500", "094635.002500", "094637.002500", "094639.002500", "094641.002500", "094643.002500", "094645.002500", "094647.002500", "094649.002500", "094651.002500", "094653.002500", "094655.002500", "094657.002500", "094659.002500", "094701.002500", "094703.002500", "094705.002500", "094707.002500", "094709.002500", "094711.002500", "094713.002500", "094715.002500", "094717.002500", "094719.002500", "094721.002500", "094723.002500", "094725.002500", "094727.002500", "094729.002500", "094731.002500", "094733.002500", "094735.002500", "094737.002500", "094739.002500", "094741.002500", "094743.002500", "094745.002500", "094747.002500", "094749.002500", "094751.002500", "094753.002500", "094755.002500", "094757.002500", "094759.002500", "094801.002500", "094803.002500", "094805.002500", "094807.002500", "094809.002500", "094811.002500", "094813.002500", "094815.002500", "094817.002500", "094819.002500", "094821.002500", "094823.002500", "094825.002500", "094827.002500", "094829.002500", "094831.002500", "094833.002500", "094835.002500", "094837.002500", "094839.002500", "094841.002500", "094843.002500", "094845.002500", "094847.002500", "094849.002500", "094851.002500", "094853.002500", "094855.002500", "094857.002500", "094859.002500", "094901.002500", "094903.002500", "094905.002500", "094907.002500", "094909.002500", "094911.002500", "094913.002500", "094915.002500", "094917.002500", "094919.002500", "094921.002500", "094923.002500", "094925.002500", "094927.002500", "094929.002500", "094931.002500", "094933.002500", "094935.002500", "094937.002500", "094939.002500", "094941.002500", "094943.002500", "094945.002500", "094947.002500", "094949.002500", "094951.002500", "094953.002500", "094955.002500", "094957.002500", "094959.002500", "095001.002500", "095003.002500", "095005.002500", "095007.002500", "095009.002500", "095011.002500", "095013.002500", "095015.002500", "095017.002500", "095019.002500", "095021.002500", "095023.002500", "095025.002500", "095027.002500", "095029.002500", "095031.002500", "095033.002500", "095035.002500", "095037.002500", "095039.002500", "095041.002500", "095043.002500", "095045.002500", "095047.002500", "095049.002500", "095051.002500", "095053.002500", "095055.002500", "095057.002500", "095059.002500", "095101.002500", "095103.002500", "095105.002500", "095107.002500", "095109.002500", "095111.002500", "095113.002500", "095115.002500", "095117.002500", "095119.002500", "095121.002500", "095123.002500", "095125.002500", "095127.002500", "095129.002500", "095131.002500", "095133.002500", "095135.002500", "095137.002500", "095139.002500", "095141.002500", "095143.002500", "095145.002500", "095147.002500", "095149.002500", "095151.002500", "095153.002500", "095155.002500", "095157.005000", "095159.005000", "095201.005000", "095203.005000", "095205.005000", "095207.005000", "095209.005000", "095211.005000", "095213.005000", "095215.005000", "095217.005000", "095219.005000", "095221.005000", "095223.005000", "095225.005000", "095227.005000", "095229.005000", "095231.005000", "095233.005000", "095235.005000", "095237.005000", "095239.005000", "095241.005000", "095243.005000", "095245.005000", "095247.005000", "095249.005000", "095251.005000", "095253.005000", "095255.005000", "095257.005000", "095259.005000", "095301.005000", "095303.005000", "095305.005000", "095307.005000", "095309.005000", "095311.005000", "095313.005000", "095315.005000", "095317.005000", "095319.005000", "095321.005000", "095323.005000", "095325.005000", "095327.005000", "095329.005000", "095331.005000", "095333.005000", "095335.005000", "095337.005000", "095339.005000", "095341.005000", "095343.005000", "095345.005000", "095347.005000", "095349.005000", "095351.005000", "095353.005000", "095355.005000", "095357.005000", "095359.005000", "095401.005000", "095403.005000", "095405.005000", "095407.005000", "095409.005000", "095411.005000", "095413.005000", "095415.005000", "095417.005000", "095419.005000", "095421.005000", "095423.005000", "095425.005000", "095427.005000", "095429.005000", "095431.005000", "095433.005000", "095435.005000", "095437.005000", "095439.005000", "095441.005000", "095443.005000", "095445.005000", "095447.005000", "095449.005000", "095451.005000", "095453.005000", "095455.005000", "095457.005000", "095459.005000", "095501.005000", "095503.005000", "095505.005000", "095507.005000", "095509.005000", "095511.005000", "095513.005000", "095515.005000", "095517.005000", "095519.005000", "095521.005000", "095523.005000", "095525.005000", "095527.005000", "095529.005000", "095531.005000", "095533.005000", "095535.005000", "095537.005000", "095539.005000", "095541.005000", "095543.005000", "095545.005000", "095547.005000", "095549.005000", "095551.005000", "095553.005000", "095555.005000", "095557.005000", "095559.005000", "095601.005000", "095603.005000", "095605.005000", "095607.005000", "095609.005000", "095611.005000", "095613.005000", "095615.005000", "095617.005000", "095619.005000", "095621.005000", "095623.005000", "095625.005000", "095627.005000", "095629.005000", "095631.005000", "095633.005000", "095635.005000", "095637.005000", "095639.005000", "095641.005000", "095643.005000", "095645.005000", "095647.005000", "095649.005000", "095651.005000", "095653.005000", "095655.005000", "095657.005000", "095659.005000", "095701.005000", "095703.005000", "095705.005000", "095707.005000", "095709.005000", "095711.005000", "095713.005000", "095715.005000", "095717.005000", "095719.005000", "095721.005000", "095723.005000", "095725.005000", "095727.005000", "095729.005000", "095731.005000", "095733.005000", "095735.005000", "095737.005000", "095739.005000", "095741.005000", "095743.005000", "095745.005000", "095747.005000", "095749.005000", "095751.005000", "095753.005000", "095755.005000", "095757.005000", "095759.005000", "095801.005000", "095803.005000", "095805.005000", "095807.005000", "095809.005000", "095811.005000", "095813.005000", "095815.005000", "095817.005000", "095819.005000", "095821.005000", "095823.005000", "095825.005000", "095827.005000", "095829.005000", "095831.005000", "095833.005000", "095835.005000", "095837.005000", "095839.005000", "095841.005000", "095843.005000", "095845.005000", "095847.005000", "095849.005000", "095851.005000", "095853.005000", "095855.005000", "095857.005000", "095859.005000", "095901.005000", "095903.005000", "095905.005000", "095907.005000", "095909.005000", "095911.005000", "095913.005000", "095915.005000", "095917.005000", "095919.005000", "095921.005000", "095923.005000", "095925.005000", "095927.005000", "095929.005000", "095931.005000", "095933.005000", "095935.005000", "095937.005000", "095939.005000", "095941.005000", "095943.005000", "095945.005000", "095947.005000", "095949.005000", "095951.005000", "095953.005000", "095955.005000", "095957.005000", "095959.005000", "100001.005000", "100003.005000", "100005.005000", "100007.005000", "100009.005000", "100011.005000", "100013.005000", "100015.005000", "100017.007500", "100019.007500", "100021.007500", "100023.007500", "100025.007500", "100027.007500", "100029.007500", "100031.007500", "100033.007500", "100035.007500", "100037.007500", "100039.007500", "100041.007500", "100043.007500", "100045.007500", "100047.007500", "100049.007500", "100051.007500", "100053.007500", "100055.007500", "100057.007500", "100059.007500", "100101.007500", "100103.007500", "100105.007500", "100107.007500", "100109.007500", "100111.007500", "100113.007500", "100115.007500", "100117.007500", "100119.007500", "100121.007500", "100123.007500", "100125.007500", "100127.007500", "100129.007500", "100131.007500", "100133.007500", "100135.007500", "100137.007500", "100139.007500", "100141.007500", "100143.007500", "100145.007500", "100147.007500", "100149.007500", "100151.007500"],
      "ContentTime": ["094532.550000", "094532.553000", "094532.555000", "094532.557000", "094532.559000", "094532.561000", "094532.563000", "094532.565000", "094532.567000", "094532.569000", "094532.571000", "094532.573000", "094532.575000", "094532.577000", "094532.579000", "094532.581000", "094532.584000", "094532.586000", "094532.588000", "094532.590000", "094532.592000", "094532.594000", "094532.596000", "094532.605000", "094612.544000", "094612.546000", "094612.548000", "094612.550000", "094612.552000", "094612.554000", "094612.556000", "094612.558000", "094612.560000", "094612.562000", "094612.564000", "094612.566000", "094612.568000", "094612.570000", "094612.572000", "094612.573000", "094612.575000", "094612.577000", "094612.579000", "094612.581000", "094652.543000", "094652.545000", "094652.547000", "094652.549000", "094652.551000", "094652.553000", "094652.555000", "094652.557000", "094652.559000", "094652.561000", "094652.563000", "094652.565000", "094652.567000", "094652.569000", "094652.571000", "094652.573000", "094652.575000", "094652.577000", "094652.579000", "094652.581000", "094732.543000", "094732.545000", "094732.547000", "094732.549000", "094732.551000", "094732.553000", "094732.555000", "094732.557000", "094732.559000", "094732.561000", "094732.563000", "094732.565000", "094732.567000", "094732.569000", "094732.571000", "094732.572000", "094732.574000", "094732.576000", "094732.578000", "094732.584000", "094812.543000", "094812.545000", "094812.547000", "094812.549000", "094812.551000", "094812.553000", "094812.555000", "094812.557000", "094812.559000", "094812.561000", "094812.563000", "094812.565000", "094812.570000", "094812.572000", "094812.574000", "094812.576000", "094812.578000", "094812.580000", "094812.582000", "094812.584000", "094852.543000", "094852.545000", "094852.547000", "094852.549000", "094852.551000", "094852.553000", "094852.555000", "094852.557000", "094852.559000", "094852.561000", "094852.563000", "094852.565000", "094852.567000", "094852.569000", "094852.571000", "094852.573000", "094852.575000", "094852.577000", "094852.578000", "094852.580000", "094932.543000", "094932.545000", "094932.547000", "094932.549000", "094932.551000", "094932.553000", "094932.555000", "094932.557000", "094932.559000", "094932.561000", "094932.563000", "094932.565000", "094932.567000", "094932.569000", "094932.571000", "094932.572000", "094932.574000", "094932.576000", "094932.578000", "094932.584000", "094952.543000", "094952.545000", "094952.547000", "094952.549000", "094952.551000", "094952.553000", "094952.555000", "094952.557000", "094952.559000", "094952.561000", "095032.543000", "095032.545000", "095032.547000", "095032.549000", "095032.551000", "095032.553000", "095032.555000", "095032.557000", "095032.559000", "095032.561000", "095032.562000", "095032.564000", "095032.566000", "095032.568000", "095032.570000", "095032.572000", "095032.574000", "095032.576000", "095032.578000", "095032.580000", "095112.543000", "095112.545000", "095112.547000", "095112.549000", "095112.551000", "095112.553000", "095112.555000", "095112.557000", "095112.559000", "095112.561000", "095112.563000", "095112.565000", "095112.567000", "095112.569000", "095112.571000", "095112.573000", "095112.577000", "095112.579000", "095112.581000", "095112.583000", "095152.543000", "095152.545000", "095152.547000", "095152.549000", "095152.551000", "095152.553000", "095152.555000", "095152.557000", "095152.559000", "095152.561000", "095152.563000", "095152.565000", "095152.567000", "095152.569000", "095152.571000", "095152.572000", "095152.574000", "095152.576000", "095152.579000", "095152.580000", "095232.543000", "095232.545000", "095232.547000", "095232.549000", "095232.551000", "095232.553000", "095232.555000", "095232.557000", "095232.559000", "095232.561000", "095232.563000", "095232.565000", "095232.566000", "095232.568000", "095232.570000", "095232.572000", "095232.574000", "095232.576000", "095232.578000", "095232.580000", "095312.544000", "095312.546000", "095312.548000", "095312.550000", "095312.552000", "095312.554000", "095312.556000", "095312.558000", "095312.560000", "095312.562000", "095312.564000", "095312.566000", "095312.568000", "095312.570000", "095312.572000", "095312.574000", "095312.576000", "095312.578000", "095312.580000", "095312.582000", "095352.543000", "095352.556000", "095352.557000", "095352.559000", "095352.561000", "095352.563000", "095352.565000", "095352.567000", "095352.569000", "095352.571000", "095352.573000", "095352.575000", "095352.577000", "095352.579000", "095352.581000", "095352.583000", "095352.585000", "095352.587000", "095352.589000", "095352.591000", "095432.543000", "095432.545000", "095432.547000", "095432.549000", "095432.551000", "095432.553000", "095432.555000", "095432.557000", "095432.559000", "095432.561000", "095432.563000", "095432.565000", "095432.567000", "095432.569000", "095432.571000", "095432.573000", "095432.575000", "095432.577000", "095432.578000", "095432.581000", "095512.543000", "095512.545000", "095512.547000", "095512.549000", "095512.551000", "095512.553000", "095512.555000", "095512.557000", "095512.559000", "095512.561000", "095512.563000", "095512.565000", "095512.567000", "095512.569000", "095512.571000", "095512.573000", "095512.575000", "095512.577000", "095512.579000", "095512.581000", "095552.543000", "095552.545000", "095552.547000", "095552.549000", "095552.551000", "095552.553000", "095552.555000", "095552.557000", "095552.559000", "095552.561000", "095552.563000", "095552.565000", "095552.567000", "095552.569000", "095552.571000", "095552.573000", "095552.575000", "095552.577000", "095552.579000", "095552.581000", "095632.543000", "095632.545000", "095632.547000", "095632.549000", "095632.551000", "095632.553000", "095632.555000", "095632.557000", "095632.559000", "095632.561000", "095632.563000", "095632.565000", "095632.567000", "095632.569000", "095632.571000", "095632.572000", "095632.574000", "095632.576000", "095632.578000", "095632.580000", "095712.543000", "095712.545000", "095712.547000", "095712.549000", "095712.551000", "095712.553000", "095712.555000", "095712.557000", "095712.559000", "095712.561000", "095712.563000", "095712.565000", "095712.567000", "095712.569000", "095712.571000", "095712.573000", "095712.575000", "095712.577000", "095712.579000", "095712.581000", "095752.544000", "095752.546000", "095752.548000", "095752.550000", "095752.552000", "095752.554000", "095752.556000", "095752.558000", "095752.560000", "095752.562000", "095752.564000", "095752.566000", "095752.568000", "095752.570000", "095752.572000", "095752.574000", "095752.576000", "095752.577000", "095752.579000", "095752.581000", "095832.543000", "095832.545000", "095832.559000", "095832.561000", "095832.563000", "095832.565000", "095832.567000", "095832.569000", "095832.570000", "095832.572000", "095832.575000", "095832.576000", "095832.578000", "095832.580000", "095832.582000", "095832.584000", "095832.586000", "095832.588000", "095832.590000", "095832.592000", "095912.543000", "095912.545000", "095912.547000", "095912.549000", "095912.551000", "095912.553000", "095912.555000", "095912.557000", "095912.559000", "095912.561000", "095912.563000", "095912.565000", "095912.567000", "095912.569000", "095912.571000", "095912.573000", "095912.574000", "095912.576000", "095912.578000", "095912.585000", "095952.543000", "095952.545000", "095952.547000", "095952.549000", "095952.551000", "095952.553000", "095952.555000", "095952.557000", "095952.559000", "095952.561000", "095952.563000", "095952.565000", "095952.567000", "095952.569000", "095952.571000", "095952.573000", "095952.575000", "095952.577000", "095952.579000", "095952.581000", "100032.543000", "100032.545000", "100032.547000", "100032.549000", "100032.551000", "100032.553000", "100032.555000", "100032.557000", "100032.559000", "100032.561000", "100032.563000", "100032.565000", "100032.567000", "100032.569000", "100032.571000", "100032.573000", "100032.575000", "100032.577000", "100032.579000", "100032.581000", "100112.543000", "100112.545000", "100112.547000", "100112.549000", "100112.551000", "100112.553000", "100112.555000", "100112.557000", "100112.559000", "100112.561000", "100112.563000", "100112.565000", "100112.567000", "100112.569000", "100112.571000", "100112.573000", "100112.575000", "100112.576000", "100112.578000", "100112.580000", "100152.441000", "100152.443000", "100152.445000", "100152.447000", "100152.449000", "100152.451000", "100152.453000", "100152.455000", "100152.457000", "100152.459000", "100152.461000", "100152.463000", "100152.465000", "100152.469000", "100152.472000", "100152.475000", "100152.497000", "100152.499000", "100152.501000", "100152.503000"],
