{
  "AcquisitionMatrixPE": 64,
  "AcquisitionNumber": 1,
  "AcquisitionTime": "10:03:33.302500",
  "BandwidthPerPixelPhaseEncode": 25.202,
  "BaseResolution": 64,
  "BodyPartExamined": "BRAIN",
  "ConsistencyInfo": "N4_VD13C_LATEST_20121124",
  "ConversionSoftware": "dcm2niix",
  "ConversionSoftwareVersion": "v1.0.20201102",
  "DerivedVendorReportedEchoSpacing": 0.00061999,
  "DeviceSerialNumber": "45758",
  "DwellTime": 4.3e-06,
  "EchoTime": 0.03,
  "EchoTrainLength": 64,
  "EffectiveEchoSpacing": 0.00061999,
  "FlipAngle": 90,
  "ImageOrientationPatientDICOM": [0.999526, -0.00789953, -0.0297631, 0.00697812, 0.999497, -0.0309357],
  "ImageType": [
    "ORIGINAL",
    "PRIMARY",
    "M",
    "ND",
    "MOSAIC"
],
  "ImagingFrequency": 123.2,
  "InPlanePhaseEncodingDirectionDICOM": "ROW",
  "InstitutionAddress": "Street StreetNo,City /652E4B/,District,KR,ZIP",
  "InstitutionName": "DGMIF",
  "InstitutionalDepartmentName": "Department",
  "MRAcquisitionType": "2D",
  "MagneticFieldStrength": 3,
  "Manufacturer": "Siemens",
  "ManufacturersModelName": "Skyra",
  "Modality": "MR",
  "PartialFourier": 1,
  "PatientPosition": "HFS",
  "PercentPhaseFOV": 100,
  "PercentSampling": 100,
  "PhaseEncodingDirection": "i",
  "PhaseEncodingSteps": 64,
  "PhaseResolution": 1,
  "PixelBandwidth": 1815,
  "ProcedureStepDescription": "DGMIF^DGIST_Jeon",
  "ProtocolName": "EPI_DGIST_2",
  "PulseSequenceDetails": "%SiemensSeq%\\ep2d_bold",
  "ReceiveCoilActiveElements": "HC1-7",
  "ReceiveCoilName": "HeadNeck_64",
  "ReconMatrixPE": 64,
  "RepetitionTime": 2,
  "SAR": 0.142334,
  "ScanOptions": "FS",
  "ScanningSequence": "EP",
  "SequenceName": "*epfid2d1_64",
  "SequenceVariant": "SK",
  "SeriesDescription": "EPI_DGIST_2",
  "SeriesNumber": 3,
  "ShimSetting": [-9728, -13687, -8269, 380, -263, 15, -434, -175],
  "SliceThickness": 4,
  "SliceTiming": [0.99, 0, 1.0575, 0.0675, 1.1225, 0.1325, 1.19, 0.2, 1.255, 0.265, 1.32, 0.33, 1.3875, 0.3975, 1.4525, 0.4625, 1.52, 0.53, 1.585, 0.595, 1.65, 0.66, 1.7175, 0.7275, 1.7825, 0.7925, 1.85, 0.86, 1.915, 0.925],
  "SoftwareVersions": "syngo MR D13C",
  "SpacingBetweenSlices": 4.8,
  "StationName": "AWP45758",
  "TaskName": "asrt",
  "TotalReadoutTime": 0.0390594,
  "TxRefAmp": 329.686,
  "dcmmeta_affine": [
    [-2.998577356338501, 0.02093436010181904, -0.14396418631076813, 94.10106658935547],
    [0.023698585107922554, 2.998491048812866, -0.14742423593997955, -115.647705078125],
    [-0.08928939700126648, 0.09280723333358765, 4.795575141906738, -70.85430908203125],
    [0.0, 0.0, 0.0, 1.0]
],
  "dcmmeta_reorient_transform": [
    [0.0, -1.0, 0.0, 63.0],
    [1.0, 0.0, 0.0, 0.0],
    [0.0, 0.0, 1.0, 0.0],
    [0.0, 0.0, 0.0, 1.0]
],
  "dcmmeta_shape": [64, 64, 30, 364],
  "dcmmeta_slice_dim": 2,
  "dcmmeta_version": 0.6,
  "global": {
    "const": {
      "AcquisitionMatrix": [0, 64, 64, 0],
      "AngioFlag": "N",
      "BitsAllocated": 16,
      "BitsStored": 12,
      "BodyPartExamined": "BRAIN",
      "Columns": 384,
      "EchoNumbers": 1,
      "EchoTime": 30.0,
      "EchoTrainLength": 64,
      "FlipAngle": 90.0,
      "HighBit": 11,
      "ImageOrientationPatient": [0.99952576427013, -0.0078995285791, -0.0297631316976, 0.00697811985842, 0.99949701625826, -0.0309357452485],
      "ImagePositionPatient": [-578.5417938033, -549.22402810156, -35.871995829252],
      "ImageType": [
        "ORIGINAL",
        "PRIMARY",
        "M",
        "ND",
        "MOSAIC"
],
      "ImagedNucleus": "1H",
      "ImagingFrequency": 123.200216,
      "InPlanePhaseEncodingDirection": "ROW",
      "MRAcquisitionType": "2D",
      "MagneticFieldStrength": 3.0,
      "Manufacturer": "SIEMENS",
      "ManufacturerModelName": "Skyra",
      "Modality": "MR",
      "NumberOfAverages": 1.0,
      "NumberOfPhaseEncodingSteps": 64,
      "PercentPhaseFieldOfView": 100.0,
      "PercentSampling": 100.0,
      "PerformedProcedureStepStartTime": "091539.751000",
      "PhotometricInterpretation": "MONOCHROME2",
      "PixelBandwidth": 1815.0,
      "PixelRepresentation": 0,
      "PixelSpacing": [3.0, 3.0],
      "ProtocolName": "EPI_DGIST_2",
      "RepetitionTime": 2000.0,
      "Rows": 384,
      "SAR": 0.14233370368887,
      "SamplesPerPixel": 1,
      "ScanOptions": "FS",
      "ScanningSequence": "EP",
      "SequenceName": "*epfid2d1_64",
      "SequenceVariant": "SK",
      "SeriesDescription": "EPI_DGIST_2",
      "SeriesNumber": 3,
      "SeriesTime": "100432.574000",
      "SliceLocation": -70.059392683988,
      "SliceThickness": 4.0,
      "SmallestImagePixelValue": 0,
      "SoftwareVersions": "syngo MR D13C",
      "SpacingBetweenSlices": 4.8000000229823,
      "SpecificCharacterSet": "ISO_IR 100",
      "StudyID": "1",
      "StudyTime": "091539.635000",
      "TimeOfLastCalibration": ["123723.000000", "123723.000000"],
      "TransmitCoilName": "Body",
      "VariableFlipAngleFlag": "N",
      "WindowCenterWidthExplanation": "Algo1",
      "dBdt": 0.0},
    "slices": {}
  },
  "time": {
    "samples": {
      "AcquisitionNumber": [1, 2, 3, 4, 5, 6, 7, 8, 9, 10, 11, 12, 13, 14, 15, 16, 17, 18, 19, 20, 21, 22, 23, 24, 25, 26, 27, 28, 29, 30, 31, 32, 33, 34, 35, 36, 37, 38, 39, 40, 41, 42, 43, 44, 45, 46, 47, 48, 49, 50, 51, 52, 53, 54, 55, 56, 57, 58, 59, 60, 61, 62, 63, 64, 65, 66, 67, 68, 69, 70, 71, 72, 73, 74, 75, 76, 77, 78, 79, 80, 81, 82, 83, 84, 85, 86, 87, 88, 89, 90, 91, 92, 93, 94, 95, 96, 97, 98, 99, 100, 101, 102, 103, 104, 105, 106, 107, 108, 109, 110, 111, 112, 113, 114, 115, 116, 117, 118, 119, 120, 121, 122, 123, 124, 125, 126, 127, 128, 129, 130, 131, 132, 133, 134, 135, 136, 137, 138, 139, 140, 141, 142, 143, 144, 145, 146, 147, 148, 149, 150, 151, 152, 153, 154, 155, 156, 157, 158, 159, 160, 161, 162, 163, 164, 165, 166, 167, 168, 169, 170, 171, 172, 173, 174, 175, 176, 177, 178, 179, 180, 181, 182, 183, 184, 185, 186, 187, 188, 189, 190, 191, 192, 193, 194, 195, 196, 197, 198, 199, 200, 201, 202, 203, 204, 205, 206, 207, 208, 209, 210, 211, 212, 213, 214, 215, 216, 217, 218, 219, 220, 221, 222, 223, 224, 225, 226, 227, 228, 229, 230, 231, 232, 233, 234, 235, 236, 237, 238, 239, 240, 241, 242, 243, 244, 245, 246, 247, 248, 249, 250, 251, 252, 253, 254, 255, 256, 257, 258, 259, 260, 261, 262, 263, 264, 265, 266, 267, 268, 269, 270, 271, 272, 273, 274, 275, 276, 277, 278, 279, 280, 281, 282, 283, 284, 285, 286, 287, 288, 289, 290, 291, 292, 293, 294, 295, 296, 297, 298, 299, 300, 301, 302, 303, 304, 305, 306, 307, 308, 309, 310, 311, 312, 313, 314, 315, 316, 317, 318, 319, 320, 321, 322, 323, 324, 325, 326, 327, 328, 329, 330, 331, 332, 333, 334, 335, 336, 337, 338, 339, 340, 341, 342, 343, 344, 345, 346, 347, 348, 349, 350, 351, 352, 353, 354, 355, 356, 357, 358, 359, 360, 361, 362, 363, 364],
      "AcquisitionTime": ["100333.302500", "100335.302500", "100337.302500", "100339.302500", "100341.302500", "100343.302500", "100345.302500", "100347.302500", "100349.302500", "100351.302500", "100353.302500", "100355.302500", "100357.302500", "100359.302500", "100401.302500", "100403.302500", "100405.302500", "100407.302500", "100409.302500", "100411.302500", "100413.302500", "100415.302500", "100417.302500", "100419.302500", "100421.302500", "100423.302500", "100425.302500", "100427.302500", "100429.302500", "100431.302500", "100433.302500", "100435.302500", "100437.302500", "100439.302500", "100441.302500", "100443.302500", "100445.302500", "100447.305000", "100449.305000", "100451.305000", "100453.305000", "100455.305000", "100457.305000", "100459.305000", "100501.305000", "100503.305000", "100505.305000", "100507.305000", "100509.305000", "100511.305000", "100513.305000", "100515.305000", "100517.305000", "100519.305000", "100521.305000", "100523.305000", "100525.305000", "100527.305000", "100529.305000", "100531.305000", "100533.305000", "100535.305000", "100537.305000", "100539.305000", "100541.305000", "100543.305000", "100545.305000", "100547.305000", "100549.305000", "100551.305000", "100553.305000", "100555.305000", "100557.305000", "100559.305000", "100601.305000", "100603.305000", "100605.305000", "100607.305000", "100609.305000", "100611.305000", "100613.305000", "100615.305000", "100617.305000", "100619.305000", "100621.305000", "100623.305000", "100625.305000", "100627.305000", "100629.305000", "100631.305000", "100633.305000", "100635.305000", "100637.305000", "100639.305000", "100641.305000", "100643.305000", "100645.305000", "100647.305000", "100649.305000", "100651.305000", "100653.305000", "100655.305000", "100657.305000", "100659.305000", "100701.305000", "100703.305000", "100705.305000", "100707.305000", "100709.305000", "100711.305000", "100713.305000", "100715.305000", "100717.305000", "100719.305000", "100721.305000", "100723.305000", "100725.305000", "100727.305000", "100729.305000", "100731.305000", "100733.305000", "100735.305000", "100737.305000", "100739.305000", "100741.305000", "100743.305000", "100745.305000", "100747.305000", "100749.305000", "100751.305000", "100753.305000", "100755.305000", "100757.305000", "100759.305000", "100801.305000", "100803.305000", "100805.305000", "100807.305000", "100809.305000", "100811.305000", "100813.305000", "100815.305000", "100817.305000", "100819.305000", "100821.305000", "100823.305000", "100825.305000", "100827.305000", "100829.305000", "100831.305000", "100833.305000", "100835.305000", "100837.305000", "100839.305000", "100841.305000", "100843.305000", "100845.305000", "100847.305000", "100849.305000", "100851.305000", "100853.305000", "100855.305000", "100857.305000", "100859.305000", "100901.305000", "100903.305000", "100905.305000", "100907.305000", "100909.305000", "100911.305000", "100913.305000", "100915.305000", "100917.305000", "100919.305000", "100921.305000", "100923.305000", "100925.305000", "100927.305000", "100929.305000", "100931.305000", "100933.305000", "100935.305000", "100937.305000", "100939.305000", "100941.305000", "100943.305000", "100945.305000", "100947.305000", "100949.305000", "100951.305000", "100953.305000", "100955.305000", "100957.305000", "100959.305000", "101001.305000", "101003.305000", "101005.305000", "101007.305000", "101009.305000", "101011.305000", "101013.305000", "101015.305000", "101017.305000", "101019.305000", "101021.305000", "101023.305000", "101025.305000", "101027.305000", "101029.305000", "101031.305000", "101033.305000", "101035.305000", "101037.305000", "101039.305000", "101041.305000", "101043.305000", "101045.305000", "101047.305000", "101049.305000", "101051.305000", "101053.305000", "101055.305000", "101057.305000", "101059.305000", "101101.305000", "101103.305000", "101105.305000", "101107.305000", "101109.305000", "101111.305000", "101113.305000", "101115.305000", "101117.305000", "101119.305000", "101121.305000", "101123.305000", "101125.305000", "101127.305000", "101129.305000", "101131.305000", "101133.305000", "101135.305000", "101137.305000", "101139.305000", "101141.305000", "101143.305000", "101145.305000", "101147.305000", "101149.305000", "101151.305000", "101153.305000", "101155.305000", "101157.305000", "101159.305000", "101201.305000", "101203.305000", "101205.305000", "101207.305000", "101209.305000", "101211.305000", "101213.305000", "101215.305000", "101217.305000", "101219.305000", "101221.305000", "101223.305000", "101225.305000", "101227.305000", "101229.305000", "101231.305000", "101233.305000", "101235.305000", "101237.305000", "101239.305000", "101241.305000", "101243.305000", "101245.305000", "101247.305000", "101249.305000", "101251.305000", "101253.305000", "101255.305000", "101257.305000", "101259.305000", "101301.305000", "101303.305000", "101305.305000", "101307.307500", "101309.307500", "101311.307500", "101313.307500", "101315.307500", "101317.307500", "101319.307500", "101321.307500", "101323.307500", "101325.307500", "101327.307500", "101329.307500", "101331.307500", "101333.307500", "101335.307500", "101337.307500", "101339.307500", "101341.307500", "101343.307500", "101345.307500", "101347.307500", "101349.307500", "101351.307500", "101353.307500", "101355.307500", "101357.307500", "101359.307500", "101401.307500", "101403.307500", "101405.307500", "101407.307500", "101409.307500", "101411.307500", "101413.307500", "101415.307500", "101417.307500", "101419.307500", "101421.307500", "101423.307500", "101425.307500", "101427.307500", "101429.307500", "101431.307500", "101433.307500", "101435.307500", "101437.307500", "101439.307500", "101441.307500", "101443.307500", "101445.307500", "101447.307500", "101449.307500", "101451.307500", "101453.307500", "101455.307500", "101457.307500", "101459.307500", "101501.307500", "101503.307500", "101505.307500", "101507.307500", "101509.307500", "101511.307500", "101513.307500", "101515.307500", "101517.307500", "101519.307500", "101521.307500", "101523.307500", "101525.307500", "101527.307500", "101529.307500", "101531.307500", "101533.307500", "101535.307500", "101537.307500", "101539.307500"],
      "ContentTime": ["100432.578000", "100432.581000", "100432.583000", "100432.585000", "100432.587000", "100432.589000", "100432.591000", "100432.593000", "100432.595000", "100432.597000", "100432.599000", "100432.607000", "100432.609000", "100432.611000", "100432.613000", "100432.614000", "100432.616000", "100432.618000", "100432.620000", "100432.622000", "100432.624000", "100432.626000", "100432.628000", "100432.630000", "100432.632000", "100432.634000", "100432.642000", "100432.644000", "100432.646000", "100512.572000", "100512.574000", "100512.576000", "100512.578000", "100512.580000", "100512.582000", "100512.584000", "100512.586000", "100512.588000", "100512.590000", "100512.592000", "100512.594000", "100512.596000", "100512.598000", "100512.600000", "100512.602000", "100512.604000", "100512.614000", "100512.616000", "100512.618000", "100552.572000", "100552.574000", "100552.576000", "100552.578000", "100552.580000", "100552.582000", "100552.584000", "100552.586000", "100552.588000", "100552.590000", "100552.592000", "100552.594000", "100552.596000", "100552.597000", "100552.600000", "100552.602000", "100552.604000", "100552.605000", "100552.607000", "100552.609000", "100632.572000", "100632.574000", "100632.576000", "100632.578000", "100632.580000", "100632.582000", "100632.584000", "100632.586000", "100632.588000", "100632.590000", "100632.592000", "100632.594000", "100632.596000", "100632.597000", "100632.599000", "100632.601000", "100632.603000", "100632.605000", "100632.607000", "100632.609000", "100712.572000", "100712.574000", "100712.579000", "100712.581000", "100712.583000", "100712.585000", "100712.587000", "100712.589000", "100712.591000", "100712.593000", "100712.595000", "100712.600000", "100712.602000", "100712.604000", "100712.606000", "100712.608000", "100712.610000", "100712.612000", "100712.614000", "100712.616000", "100752.572000", "100752.574000", "100752.576000", "100752.578000", "100752.580000", "100752.582000", "100752.584000", "100752.586000", "100752.588000", "100752.590000", "100752.592000", "100752.594000", "100752.596000", "100752.598000", "100752.600000", "100752.602000", "100752.604000", "100752.606000", "100752.608000", "100752.610000", "100832.572000", "100832.574000", "100832.576000", "100832.578000", "100832.580000", "100832.582000", "100832.584000", "100832.586000", "100832.588000", "100832.590000", "100832.595000", "100832.597000", "100832.599000", "100832.601000", "100832.603000", "100832.605000", "100832.607000", "100832.609000", "100832.611000", "100832.613000", "100912.572000", "100912.574000", "100912.576000", "100912.578000", "100912.580000", "100912.582000", "100912.584000", "100912.586000", "100912.588000", "100912.590000", "100912.592000", "100912.594000", "100912.596000", "100912.598000", "100912.600000", "100912.602000", "100912.603000", "100912.605000", "100912.607000", "100912.609000", "100952.572000", "100952.574000", "100952.576000", "100952.578000", "100952.580000", "100952.582000", "100952.584000", "100952.586000", "100952.588000", "100952.590000", "100952.592000", "100952.594000", "100952.596000", "100952.598000", "100952.600000", "100952.602000", "100952.604000", "100952.606000", "100952.608000", "100952.609000", "101012.572000", "101012.574000", "101012.584000", "101012.586000", "101012.588000", "101012.590000", "101012.592000", "101012.594000", "101012.596000", "101012.598000", "101052.572000", "101052.574000", "101052.576000", "101052.578000", "101052.580000", "101052.582000", "101052.584000", "101052.586000", "101052.588000", "101052.590000", "101052.592000", "101052.594000", "101052.596000", "101052.598000", "101052.600000", "101052.602000", "101052.604000", "101052.606000", "101052.607000", "101052.609000", "101132.572000", "101132.574000", "101132.576000", "101132.578000", "101132.580000", "101132.582000", "101132.584000", "101132.586000", "101132.588000", "101132.590000", "101132.592000", "101132.594000", "101132.596000", "101132.598000", "101132.600000", "101132.602000", "101132.604000", "101132.606000", "101132.608000", "101132.610000", "101212.572000", "101212.574000", "101212.576000", "101212.578000", "101212.580000", "101212.582000", "101212.584000", "101212.586000", "101212.588000", "101212.590000", "101212.592000", "101212.594000", "101212.596000", "101212.598000", "101212.600000", "101212.602000", "101212.627000", "101212.629000", "101212.631000", "101212.633000", "101252.572000", "101252.574000", "101252.576000", "101252.578000", "101252.580000", "101252.582000", "101252.584000", "101252.586000", "101252.588000", "101252.590000", "101252.592000", "101252.594000", "101252.596000", "101252.598000", "101252.599000", "101252.602000", "101252.603000", "101252.606000", "101252.608000", "101252.610000", "101332.572000", "101332.574000", "101332.576000", "101332.578000", "101332.580000", "101332.582000", "101332.584000", "101332.586000", "101332.588000", "101332.590000", "101332.592000", "101332.594000", "101332.596000", "101332.598000", "101332.600000", "101332.602000", "101332.604000", "101332.605000", "101332.608000", "101332.610000", "101412.572000", "101412.574000", "101412.576000", "101412.578000", "101412.580000", "101412.582000", "101412.584000", "101412.586000", "101412.588000", "101412.590000", "101412.592000", "101412.594000", "101412.596000", "101412.598000", "101412.600000", "101412.602000", "101412.604000", "101412.606000", "101412.608000", "101412.610000", "101452.572000", "101452.574000", "101452.576000", "101452.578000", "101452.580000", "101452.582000", "101452.584000", "101452.586000", "101452.588000", "101452.590000", "101452.592000", "101452.594000", "101452.596000", "101452.598000", "101452.600000", "101452.602000", "101452.604000", "101452.606000", "101452.608000", "101452.616000", "101532.572000", "101532.574000", "101532.576000", "101532.578000", "101532.580000", "101532.582000", "101532.584000", "101532.586000", "101532.588000", "101532.590000", "101532.592000", "101532.594000", "101532.596000", "101532.598000", "101532.600000", "101532.602000", "101532.604000", "101532.606000", "101532.608000", "101532.610000", "101540.824000", "101540.827000", "101540.829000", "101540.831000", "101540.833000"],
      "InstanceCreationTime": ["100432.578000", "100432.581000", "100432.583000", "100432.585000", "100432.587000", "100432.589000", "100432.591000", "100432.593000", "100432.595000", "100432.597000", "100432.599000", "100432.607000", "100432.609000", "100432.611000", "100432.613000", "100432.614000", "100432.616000", "100432.618000", "100432.620000", "100432.622000", "100432.624000", "100432.626000", "100432.628000", "100432.630000", "100432.632000", "100432.634000", "100432.642000", "100432.644000", "100432.646000", "100512.572000", "100512.574000", "100512.576000", "100512.578000", "100512.580000", "100512.582000", "100512.584000", "100512.586000", "100512.588000", "100512.590000", "100512.592000", "100512.594000", "100512.596000", "100512.598000", "100512.600000", "100512.602000", "100512.604000", "100512.614000", "100512.616000", "100512.618000", "100552.572000", "100552.574000", "100552.576000", "100552.578000", "100552.580000", "100552.582000", "100552.584000", "100552.586000", "100552.588000", "100552.590000", "100552.592000", "100552.594000", "100552.596000", "100552.597000", "100552.600000", "100552.602000", "100552.604000", "100552.605000", "100552.607000", "100552.609000", "100632.572000", "100632.574000", "100632.576000", "100632.578000", "100632.580000", "100632.582000", "100632.584000", "100632.586000", "100632.588000", "100632.590000", "100632.592000", "100632.594000", "100632.596000", "100632.597000", "100632.599000", "100632.601000", "100632.603000", "100632.605000", "100632.607000", "100632.609000", "100712.572000", "100712.574000", "100712.579000", "100712.581000", "100712.583000", "100712.585000", "100712.587000", "100712.589000", "100712.591000", "100712.593000", "100712.595000", "100712.600000", "100712.602000", "100712.604000", "100712.606000", "100712.608000", "100712.610000", "100712.612000", "100712.614000", "100712.616000", "100752.572000", "100752.574000", "100752.576000", "100752.578000", "100752.580000", "100752.582000", "100752.584000", "100752.586000", "100752.588000", "100752.590000", "100752.592000", "100752.594000", "100752.596000", "100752.598000", "100752.600000", "100752.602000", "100752.604000", "100752.606000", "100752.608000", "100752.610000", "100832.572000", "100832.574000", "100832.576000", "100832.578000", "100832.580000", "100832.582000", "100832.584000", "100832.586000", "100832.588000", "100832.590000", "100832.595000", "100832.597000", "100832.599000", "100832.601000", "100832.603000", "100832.605000", "100832.607000", "100832.609000", "100832.611000", "100832.613000", "100912.572000", "100912.574000", "100912.576000", "100912.578000", "100912.580000", "100912.582000", "100912.584000", "100912.586000", "100912.588000", "100912.590000", "100912.592000", "100912.594000", "100912.596000", "100912.598000", "100912.600000", "100912.602000", "100912.603000", "100912.605000", "100912.607000", "100912.609000", "100952.572000", "100952.574000", "100952.576000", "100952.578000", "100952.580000", "100952.582000", "100952.584000", "100952.586000", "100952.588000", "100952.590000", "100952.592000", "100952.594000", "100952.596000", "100952.598000", "100952.600000", "100952.602000", "100952.604000", "100952.606000", "100952.608000", "100952.609000", "101012.572000", "101012.574000", "101012.584000", "101012.586000", "101012.588000", "101012.590000", "101012.592000", "101012.594000", "101012.596000", "101012.598000", "101052.572000", "101052.574000", "101052.576000", "101052.578000", "101052.580000", "101052.582000", "101052.584000", "101052.586000", "101052.588000", "101052.590000", "101052.592000", "101052.594000", "101052.596000", "101052.598000", "101052.600000", "101052.602000", "101052.604000", "101052.606000", "101052.607000", "101052.609000", "101132.572000", "101132.574000", "101132.576000", "101132.578000", "101132.580000", "101132.582000", "101132.584000", "101132.586000", "101132.588000", "101132.590000", "101132.592000", "101132.594000", "101132.596000", "101132.598000", "101132.600000", "101132.602000", "101132.604000", "101132.606000", "101132.608000", "101132.610000", "101212.572000", "101212.574000", "101212.576000", "101212.578000", "101212.580000", "101212.582000", "101212.584000", "101212.586000", "101212.588000", "101212.590000", "101212.592000", "101212.594000", "101212.596000", "101212.598000", "101212.600000", "101212.602000", "101212.627000", "101212.629000", "101212.631000", "101212.633000", "101252.572000", "101252.574000", "101252.576000", "101252.578000", "101252.580000", "101252.582000", "101252.584000", "101252.586000", "101252.588000", "101252.590000", "101252.592000", "101252.594000", "101252.596000", "101252.598000", "101252.599000", "101252.602000", "101252.603000", "101252.606000", "101252.608000", "101252.610000", "101332.572000", "101332.574000", "101332.576000", "101332.578000", "101332.580000", "101332.582000", "101332.584000", "101332.586000", "101332.588000", "101332.590000", "101332.592000", "101332.594000", "101332.596000", "101332.598000", "101332.600000", "101332.602000", "101332.604000", "101332.605000", "101332.608000", "101332.610000", "101412.572000", "101412.574000", "101412.576000", "101412.578000", "101412.580000", "101412.582000", "101412.584000", "101412.586000", "101412.588000", "101412.590000", "101412.592000", "101412.594000", "101412.596000", "101412.598000", "101412.600000", "101412.602000", "101412.604000", "101412.606000", "101412.608000", "101412.610000", "101452.572000", "101452.574000", "101452.576000", "101452.578000", "101452.580000", "101452.582000", "101452.584000", "101452.586000", "101452.588000", "101452.590000", "101452.592000", "101452.594000", "101452.596000", "101452.598000", "101452.600000", "101452.602000", "101452.604000", "101452.606000", "101452.608000", "101452.616000", "101532.572000", "101532.574000", "101532.576000", "101532.578000", "101532.580000", "101532.582000", "101532.584000", "101532.586000", "101532.588000", "101532.590000", "101532.592000", "101532.594000", "101532.596000", "101532.598000", "101532.600000", "101532.602000", "101532.604000", "101532.606000", "101532.608000", "101532.610000", "101540.824000", "101540.827000", "101540.829000", "101540.831000", "101540.833000"],
      "InstanceNumber": [1, 2, 3, 4, 5, 6, 7, 8, 9, 10, 11, 12, 13, 14, 15, 16, 17, 18, 19, 20, 21, 22, 23, 24, 25, 26, 27, 28, 29, 30, 31, 32, 33, 34, 35, 36, 37, 38, 39, 40, 41, 42, 43, 44, 45, 46, 47, 48, 49, 50, 51, 52, 53, 54, 55, 56, 57, 58, 59, 60, 61, 62, 63, 64, 65, 66, 67, 68, 69, 70, 71, 72, 73, 74, 75, 76, 77, 78, 79, 80, 81, 82, 83, 84, 85, 86, 87, 88, 89, 90, 91, 92, 93, 94, 95, 96, 97, 98, 99, 100, 101, 102, 103, 104, 105, 106, 107, 108, 109, 110, 111, 112, 113, 114, 115, 116, 117, 118, 119, 120, 121, 122, 123, 124, 125, 126, 127, 128, 129, 130, 131, 132, 133, 134, 135, 136, 137, 138, 139, 140, 141, 142, 143, 144, 145, 146, 147, 148, 149, 150, 151, 152, 153, 154, 155, 156, 157, 158, 159, 160, 161, 162, 163, 164, 165, 166, 167, 168, 169, 170, 171, 172, 173, 174, 175, 176, 177, 178, 179, 180, 181, 182, 183, 184, 185, 186, 187, 188, 189, 190, 191, 192, 193, 194, 195, 196, 197, 198, 199, 200, 201, 202, 203, 204, 205, 206, 207, 208, 209, 210, 211, 212, 213, 214, 215, 216, 217, 218, 219, 220, 221, 222, 223, 224, 225, 226, 227, 228, 229, 230, 231, 232, 233, 234, 235, 236, 237, 238, 239, 240, 241, 242, 243, 244, 245, 246, 247, 248, 249, 250, 251, 252, 253, 254, 255, 256, 257, 258, 259, 260, 261, 262, 263, 264, 265, 266, 267, 268, 269, 270, 271, 272, 273, 274, 275, 276, 277, 278, 279, 280, 281, 282, 283, 284, 285, 286, 287, 288, 289, 290, 291, 292, 293, 294, 295, 296, 297, 298, 299, 300, 301, 302, 303, 304, 305, 306, 307, 308, 309, 310, 311, 312, 313, 314, 315, 316, 317, 318, 319, 320, 321, 322, 323, 324, 325, 326, 327, 328, 329, 330, 331, 332, 333, 334, 335, 336, 337, 338, 339, 340, 341, 342, 343, 344, 345, 346, 347, 348, 349, 350, 351, 352, 353, 354, 355, 356, 357, 358, 359, 360, 361, 362, 363, 364],
      "LargestImagePixelValue": [3155, 3029, 2989, 2977, 2974, 2968, 2998, 3019, 3026, 3025, 3025, 3026, 3038, 3030, 3020, 3023, 3037, 3037, 3035, 3042, 3059, 3077, 3082, 3078, 3080, 3091, 3097, 3075, 3074, 3050, 3045, 3036, 3025, 3049, 3055, 3065, 3065, 3064, 3075, 3054, 3056, 3065, 3068, 3055, 3085, 3086, 3080, 3074, 3063, 3055, 3040, 3045, 3025, 3028, 3029, 3022, 3018, 3026, 3018, 3022, 3023, 2994, 2976, 3022, 3017, 3005, 3034, 3034, 3045, 3048, 3037, 3021, 3022, 3019, 3028, 3024, 3041, 3050, 3035, 3035, 3048, 3054, 3042, 3045, 3032, 3036, 3021, 3026, 3014, 3006, 3022, 2988, 2990, 3010, 3011, 3000, 2989, 3015, 3024, 3014, 3006, 3021, 3017, 2997, 3006, 2992, 3003, 2993, 3017, 3025, 3033, 3031, 3000, 2989, 2998, 2999, 3000, 2989, 2975, 2988, 3002, 3016, 3022, 3055, 3035, 3028, 3009, 3016, 3040, 3036, 3055, 3056, 3048, 3028, 3048, 3043, 3038, 3039, 3025, 3010, 3004, 3007, 2997, 2986, 3002, 3010, 3008, 2988, 2990, 2988, 2984, 3001, 3002, 3007, 3010, 3020, 3011, 3010, 3012, 2992, 2989, 3007, 3013, 3023, 3008, 2995, 3014, 3017, 2997, 2994, 2979, 3008, 3017, 3024, 2990, 3024, 3011, 3006, 3007, 2991, 2972, 3006, 2993, 3014, 3020, 3018, 2987, 2993, 3028, 3014, 3031, 3031, 3040, 3049, 3033, 3014, 3015, 3005, 3017, 3041, 3049, 3035, 3014, 2990, 3004, 3000, 3014, 3012, 2994, 2996, 3024, 2985, 3018, 3049, 3040, 3027, 3033, 3027, 3036, 3030, 3046, 3061, 3075, 3042, 3047, 3037, 3047, 3058, 3040, 3040, 3038, 3052, 3036, 3030, 3028, 3018, 3031, 3030, 3029, 3023, 3036, 3024, 3030, 3047, 3055, 3058, 3068, 3080, 3081, 3067, 3071, 3071, 3071, 3052, 3047, 3049, 3059, 3073, 3073, 3080, 3084, 3107, 3087, 3092, 3095, 3084, 3083, 3069, 3060, 3049, 3037, 3070, 3048, 3074, 3097, 3089, 3056, 3074, 3068, 3055, 3036, 3027, 3029, 3020, 3025, 3046, 3056, 3068, 3047, 3046, 3027, 3037, 3041, 3037, 3033, 3029, 3038, 3045, 3067, 3058, 3047, 3046, 3045, 3057, 3042, 3032, 3037, 3048, 3064, 3072, 3062, 3054, 3076, 3079, 3076, 3071, 3074, 3076, 3047, 3058, 3066, 3097, 3093, 3099, 3082, 3086, 3079, 3077, 3053, 3015, 3013, 3032, 3040, 3035, 3041, 3042, 3040, 3027, 3046, 3022, 3027, 3045, 3047, 3056, 3051, 3060, 3076, 3082, 3087, 3076, 3074, 3079, 3065, 3103, 3094, 3028, 3062, 3051, 3055, 3059, 3046, 3001, 3034, 3035],
