{
  "AcquisitionMatrixPE": 64,
  "AcquisitionNumber": 1,
  "AcquisitionTime": "10:17:12.052500",
  "BandwidthPerPixelPhaseEncode": 25.202,
  "BaseResolution": 64,
  "BodyPartExamined": "BRAIN",
  "ConsistencyInfo": "N4_VD13C_LATEST_20121124",
  "ConversionSoftware": "dcm2niix",
  "ConversionSoftwareVersion": "v1.0.20201102",
  "DerivedVendorReportedEchoSpacing": 0.00061999,
  "DeviceSerialNumber": "45758",
  "DwellTime": 4.3e-06,
  "EchoTime": 0.03,
  "EchoTrainLength": 64,
  "EffectiveEchoSpacing": 0.00061999,
  "FlipAngle": 90,
  "ImageOrientationPatientDICOM": [0.999526, -0.00789953, -0.0297631, 0.00697812, 0.999497, -0.0309357],
  "ImageType": [
    "ORIGINAL",
    "PRIMARY",
    "M",
    "ND",
    "MOSAIC"
],
  "ImagingFrequency": 123.2,
  "InPlanePhaseEncodingDirectionDICOM": "ROW",
  "InstitutionAddress": "Street StreetNo,City /652E4B/,District,KR,ZIP",
  "InstitutionName": "DGMIF",
  "InstitutionalDepartmentName": "Department",
  "MRAcquisitionType": "2D",
  "MagneticFieldStrength": 3,
  "Manufacturer": "Siemens",
  "ManufacturersModelName": "Skyra",
  "Modality": "MR",
  "PartialFourier": 1,
  "PatientPosition": "HFS",
  "PercentPhaseFOV": 100,
  "PercentSampling": 100,
  "PhaseEncodingDirection": "i",
  "PhaseEncodingSteps": 64,
  "PhaseResolution": 1,
  "PixelBandwidth": 1815,
  "ProcedureStepDescription": "DGMIF^DGIST_Jeon",
  "ProtocolName": "EPI_DGIST_3",
  "PulseSequenceDetails": "%SiemensSeq%\\ep2d_bold",
  "ReceiveCoilActiveElements": "HC1-7",
  "ReceiveCoilName": "HeadNeck_64",
  "ReconMatrixPE": 64,
  "RepetitionTime": 2,
  "SAR": 0.142334,
  "ScanOptions": "FS",
  "ScanningSequence": "EP",
  "SequenceName": "*epfid2d1_64",
  "SequenceVariant": "SK",
  "SeriesDescription": "EPI_DGIST_3",
  "SeriesNumber": 4,
  "ShimSetting": [-9728, -13687, -8269, 380, -263, 15, -434, -175],
  "SliceThickness": 4,
  "SliceTiming": [0.99, 0, 1.055, 0.065, 1.1225, 0.1325, 1.1875, 0.1975, 1.255, 0.265, 1.32, 0.33, 1.385, 0.395, 1.4525, 0.4625, 1.5175, 0.5275, 1.585, 0.595, 1.65, 0.66, 1.715, 0.725, 1.7825, 0.7925, 1.8475, 0.8575, 1.9125, 0.925],
  "SoftwareVersions": "syngo MR D13C",
  "SpacingBetweenSlices": 4.8,
  "StationName": "AWP45758",
  "TaskName": "asrt",
  "TotalReadoutTime": 0.0390594,
  "TxRefAmp": 329.686,
  "dcmmeta_affine": [
    [-2.998577356338501, 0.02093436010181904, -0.14396418631076813, 94.10106658935547],
    [0.023698585107922554, 2.998491048812866, -0.14742423593997955, -115.647705078125],
    [-0.08928939700126648, 0.09280723333358765, 4.795575141906738, -70.85430908203125],
    [0.0, 0.0, 0.0, 1.0]
],
  "dcmmeta_reorient_transform": [
    [0.0, -1.0, 0.0, 63.0],
    [1.0, 0.0, 0.0, 0.0],
    [0.0, 0.0, 1.0, 0.0],
    [0.0, 0.0, 0.0, 1.0]
],
  "dcmmeta_shape": [64, 64, 30, 364],
  "dcmmeta_slice_dim": 2,
  "dcmmeta_version": 0.6,
  "global": {
    "const": {
      "AcquisitionMatrix": [0, 64, 64, 0],
      "AngioFlag": "N",
      "BitsAllocated": 16,
      "BitsStored": 12,
      "BodyPartExamined": "BRAIN",
      "Columns": 384,
      "EchoNumbers": 1,
      "EchoTime": 30.0,
      "EchoTrainLength": 64,
      "FlipAngle": 90.0,
      "HighBit": 11,
      "ImageOrientationPatient": [0.99952576427013, -0.0078995285791, -0.0297631316976, 0.00697811985842, 0.99949701625826, -0.0309357452485],
      "ImagePositionPatient": [-578.5417938033, -549.22402810156, -35.871995829252],
      "ImageType": [
        "ORIGINAL",
        "PRIMARY",
        "M",
        "ND",
        "MOSAIC"
],
      "ImagedNucleus": "1H",
      "ImagingFrequency": 123.200241,
      "InPlanePhaseEncodingDirection": "ROW",
      "MRAcquisitionType": "2D",
      "MagneticFieldStrength": 3.0,
      "Manufacturer": "SIEMENS",
      "ManufacturerModelName": "Skyra",
      "Modality": "MR",
      "NumberOfAverages": 1.0,
      "NumberOfPhaseEncodingSteps": 64,
      "PercentPhaseFieldOfView": 100.0,
      "PercentSampling": 100.0,
      "PerformedProcedureStepStartTime": "091539.751000",
      "PhotometricInterpretation": "MONOCHROME2",
      "PixelBandwidth": 1815.0,
      "PixelRepresentation": 0,
      "PixelSpacing": [3.0, 3.0],
      "ProtocolName": "EPI_DGIST_3",
      "RepetitionTime": 2000.0,
      "Rows": 384,
      "SAR": 0.14233370368887,
      "SamplesPerPixel": 1,
      "ScanOptions": "FS",
      "ScanningSequence": "EP",
      "SequenceName": "*epfid2d1_64",
      "SequenceVariant": "SK",
      "SeriesDescription": "EPI_DGIST_3",
      "SeriesNumber": 4,
      "SeriesTime": "101800.263000",
      "SliceLocation": -70.059392683988,
      "SliceThickness": 4.0,
      "SmallestImagePixelValue": 0,
      "SoftwareVersions": "syngo MR D13C",
      "SpacingBetweenSlices": 4.8000000229823,
      "SpecificCharacterSet": "ISO_IR 100",
      "StudyID": "1",
      "StudyTime": "091539.635000",
      "TimeOfLastCalibration": ["123723.000000", "123723.000000"],
      "TransmitCoilName": "Body",
      "VariableFlipAngleFlag": "N",
      "WindowCenterWidthExplanation": "Algo1",
      "dBdt": 0.0},
    "slices": {}
  },
  "time": {
    "samples": {
      "AcquisitionNumber": [1, 2, 3, 4, 5, 6, 7, 8, 9, 10, 11, 12, 13, 14, 15, 16, 17, 18, 19, 20, 21, 22, 23, 24, 25, 26, 27, 28, 29, 30, 31, 32, 33, 34, 35, 36, 37, 38, 39, 40, 41, 42, 43, 44, 45, 46, 47, 48, 49, 50, 51, 52, 53, 54, 55, 56, 57, 58, 59, 60, 61, 62, 63, 64, 65, 66, 67, 68, 69, 70, 71, 72, 73, 74, 75, 76, 77, 78, 79, 80, 81, 82, 83, 84, 85, 86, 87, 88, 89, 90, 91, 92, 93, 94, 95, 96, 97, 98, 99, 100, 101, 102, 103, 104, 105, 106, 107, 108, 109, 110, 111, 112, 113, 114, 115, 116, 117, 118, 119, 120, 121, 122, 123, 124, 125, 126, 127, 128, 129, 130, 131, 132, 133, 134, 135, 136, 137, 138, 139, 140, 141, 142, 143, 144, 145, 146, 147, 148, 149, 150, 151, 152, 153, 154, 155, 156, 157, 158, 159, 160, 161, 162, 163, 164, 165, 166, 167, 168, 169, 170, 171, 172, 173, 174, 175, 176, 177, 178, 179, 180, 181, 182, 183, 184, 185, 186, 187, 188, 189, 190, 191, 192, 193, 194, 195, 196, 197, 198, 199, 200, 201, 202, 203, 204, 205, 206, 207, 208, 209, 210, 211, 212, 213, 214, 215, 216, 217, 218, 219, 220, 221, 222, 223, 224, 225, 226, 227, 228, 229, 230, 231, 232, 233, 234, 235, 236, 237, 238, 239, 240, 241, 242, 243, 244, 245, 246, 247, 248, 249, 250, 251, 252, 253, 254, 255, 256, 257, 258, 259, 260, 261, 262, 263, 264, 265, 266, 267, 268, 269, 270, 271, 272, 273, 274, 275, 276, 277, 278, 279, 280, 281, 282, 283, 284, 285, 286, 287, 288, 289, 290, 291, 292, 293, 294, 295, 296, 297, 298, 299, 300, 301, 302, 303, 304, 305, 306, 307, 308, 309, 310, 311, 312, 313, 314, 315, 316, 317, 318, 319, 320, 321, 322, 323, 324, 325, 326, 327, 328, 329, 330, 331, 332, 333, 334, 335, 336, 337, 338, 339, 340, 341, 342, 343, 344, 345, 346, 347, 348, 349, 350, 351, 352, 353, 354, 355, 356, 357, 358, 359, 360, 361, 362, 363, 364],
      "AcquisitionTime": ["101712.052500", "101714.052500", "101716.052500", "101718.052500", "101720.052500", "101722.052500", "101724.052500", "101726.052500", "101728.052500", "101730.052500", "101732.052500", "101734.052500", "101736.052500", "101738.052500", "101740.052500", "101742.052500", "101744.052500", "101746.052500", "101748.052500", "101750.052500", "101752.052500", "101754.052500", "101756.052500", "101758.052500", "101800.052500", "101802.052500", "101804.052500", "101806.052500", "101808.052500", "101810.052500", "101812.052500", "101814.052500", "101816.052500", "101818.052500", "101820.052500", "101822.052500", "101824.052500", "101826.052500", "101828.052500", "101830.052500", "101832.052500", "101834.052500", "101836.052500", "101838.052500", "101840.052500", "101842.052500", "101844.052500", "101846.052500", "101848.052500", "101850.052500", "101852.052500", "101854.052500", "101856.052500", "101858.052500", "101900.052500", "101902.052500", "101904.052500", "101906.052500", "101908.052500", "101910.052500", "101912.052500", "101914.052500", "101916.052500", "101918.052500", "101920.052500", "101922.052500", "101924.052500", "101926.052500", "101928.052500", "101930.052500", "101932.052500", "101934.052500", "101936.052500", "101938.052500", "101940.052500", "101942.052500", "101944.052500", "101946.052500", "101948.052500", "101950.052500", "101952.052500", "101954.052500", "101956.052500", "101958.052500", "102000.052500", "102002.052500", "102004.052500", "102006.052500", "102008.052500", "102010.052500", "102012.052500", "102014.052500", "102016.052500", "102018.052500", "102020.052500", "102022.052500", "102024.052500", "102026.052500", "102028.052500", "102030.052500", "102032.052500", "102034.052500", "102036.052500", "102038.052500", "102040.052500", "102042.052500", "102044.052500", "102046.052500", "102048.052500", "102050.052500", "102052.052500", "102054.052500", "102056.052500", "102058.052500", "102100.052500", "102102.052500", "102104.052500", "102106.052500", "102108.052500", "102110.052500", "102112.052500", "102114.052500", "102116.052500", "102118.052500", "102120.052500", "102122.052500", "102124.052500", "102126.052500", "102128.052500", "102130.052500", "102132.052500", "102134.052500", "102136.052500", "102138.052500", "102140.052500", "102142.052500", "102144.052500", "102146.052500", "102148.052500", "102150.055000", "102152.055000", "102154.055000", "102156.055000", "102158.055000", "102200.055000", "102202.055000", "102204.055000", "102206.055000", "102208.055000", "102210.055000", "102212.055000", "102214.055000", "102216.055000", "102218.055000", "102220.055000", "102222.055000", "102224.055000", "102226.055000", "102228.055000", "102230.055000", "102232.055000", "102234.055000", "102236.055000", "102238.055000", "102240.055000", "102242.055000", "102244.055000", "102246.055000", "102248.055000", "102250.055000", "102252.055000", "102254.055000", "102256.055000", "102258.055000", "102300.055000", "102302.055000", "102304.055000", "102306.055000", "102308.055000", "102310.055000", "102312.055000", "102314.055000", "102316.055000", "102318.055000", "102320.055000", "102322.055000", "102324.055000", "102326.055000", "102328.055000", "102330.055000", "102332.055000", "102334.055000", "102336.055000", "102338.055000", "102340.055000", "102342.055000", "102344.055000", "102346.055000", "102348.055000", "102350.055000", "102352.055000", "102354.055000", "102356.055000", "102358.055000", "102400.055000", "102402.055000", "102404.055000", "102406.055000", "102408.055000", "102410.055000", "102412.055000", "102414.055000", "102416.055000", "102418.055000", "102420.055000", "102422.055000", "102424.055000", "102426.055000", "102428.055000", "102430.055000", "102432.055000", "102434.055000", "102436.055000", "102438.055000", "102440.055000", "102442.055000", "102444.055000", "102446.055000", "102448.055000", "102450.055000", "102452.055000", "102454.055000", "102456.055000", "102458.055000", "102500.055000", "102502.055000", "102504.055000", "102506.055000", "102508.055000", "102510.055000", "102512.055000", "102514.055000", "102516.055000", "102518.055000", "102520.055000", "102522.055000", "102524.055000", "102526.055000", "102528.055000", "102530.055000", "102532.055000", "102534.055000", "102536.055000", "102538.055000", "102540.055000", "102542.055000", "102544.055000", "102546.055000", "102548.055000", "102550.055000", "102552.055000", "102554.055000", "102556.055000", "102558.055000", "102600.055000", "102602.055000", "102604.055000", "102606.055000", "102608.055000", "102610.055000", "102612.055000", "102614.055000", "102616.055000", "102618.055000", "102620.055000", "102622.055000", "102624.055000", "102626.055000", "102628.055000", "102630.055000", "102632.055000", "102634.055000", "102636.055000", "102638.055000", "102640.055000", "102642.055000", "102644.055000", "102646.055000", "102648.055000", "102650.055000", "102652.055000", "102654.055000", "102656.055000", "102658.055000", "102700.055000", "102702.055000", "102704.055000", "102706.055000", "102708.055000", "102710.055000", "102712.055000", "102714.055000", "102716.055000", "102718.055000", "102720.055000", "102722.055000", "102724.055000", "102726.055000", "102728.055000", "102730.055000", "102732.055000", "102734.055000", "102736.055000", "102738.055000", "102740.055000", "102742.055000", "102744.055000", "102746.055000", "102748.055000", "102750.055000", "102752.055000", "102754.055000", "102756.055000", "102758.055000", "102800.055000", "102802.055000", "102804.055000", "102806.055000", "102808.055000", "102810.055000", "102812.055000", "102814.055000", "102816.055000", "102818.055000", "102820.055000", "102822.055000", "102824.055000", "102826.055000", "102828.055000", "102830.055000", "102832.055000", "102834.055000", "102836.055000", "102838.055000", "102840.055000", "102842.055000", "102844.055000", "102846.055000", "102848.055000", "102850.055000", "102852.055000", "102854.055000", "102856.055000", "102858.055000", "102900.055000", "102902.055000", "102904.055000", "102906.055000", "102908.055000", "102910.055000", "102912.055000", "102914.055000", "102916.055000", "102918.055000"],
      "ContentTime": ["101800.266000", "101800.269000", "101800.271000", "101800.273000", "101800.275000", "101800.277000", "101800.279000", "101800.281000", "101800.283000", "101800.285000", "101800.287000", "101800.289000", "101800.291000", "101800.298000", "101800.300000", "101800.302000", "101800.304000", "101800.306000", "101800.308000", "101800.310000", "101800.312000", "101800.314000", "101800.316000", "101800.318000", "101840.261000", "101840.263000", "101840.265000", "101840.267000", "101840.269000", "101840.271000", "101840.273000", "101840.275000", "101840.278000", "101840.279000", "101840.281000", "101840.283000", "101840.286000", "101840.288000", "101840.289000", "101840.291000", "101840.293000", "101840.295000", "101840.297000", "101840.299000", "101920.260000", "101920.262000", "101920.264000", "101920.266000", "101920.268000", "101920.270000", "101920.272000", "101920.274000", "101920.276000", "101920.278000", "101920.280000", "101920.282000", "101920.284000", "101920.286000", "101920.288000", "101920.290000", "101920.292000", "101920.294000", "101920.296000", "101920.298000", "102000.260000", "102000.262000", "102000.264000", "102000.266000", "102000.269000", "102000.271000", "102000.272000", "102000.274000", "102000.277000", "102000.278000", "102000.280000", "102000.282000", "102000.284000", "102000.286000", "102000.288000", "102000.290000", "102000.292000", "102000.294000", "102000.296000", "102000.298000", "102040.261000", "102040.263000", "102040.265000", "102040.267000", "102040.269000", "102040.271000", "102040.273000", "102040.275000", "102040.277000", "102040.279000", "102040.281000", "102040.283000", "102040.285000", "102040.287000", "102040.289000", "102040.291000", "102040.293000", "102040.295000", "102040.297000", "102040.299000", "102120.260000", "102120.262000", "102120.264000", "102120.266000", "102120.268000", "102120.270000", "102120.272000", "102120.274000", "102120.276000", "102120.278000", "102120.280000", "102120.282000", "102120.284000", "102120.286000", "102120.288000", "102120.290000", "102120.292000", "102120.294000", "102120.296000", "102120.298000", "102200.260000", "102200.262000", "102200.271000", "102200.285000", "102200.287000", "102200.289000", "102200.291000", "102200.293000", "102200.295000", "102200.297000", "102200.299000", "102200.301000", "102200.303000", "102200.305000", "102200.307000", "102200.309000", "102200.311000", "102200.313000", "102200.315000", "102200.317000", "102240.261000", "102240.263000", "102240.265000", "102240.267000", "102240.269000", "102240.271000", "102240.273000", "102240.275000", "102240.277000", "102240.279000", "102240.281000", "102240.283000", "102240.285000", "102240.287000", "102240.289000", "102240.291000", "102240.293000", "102240.295000", "102240.297000", "102240.299000", "102320.261000", "102320.263000", "102320.265000", "102320.267000", "102320.269000", "102320.271000", "102320.273000", "102320.275000", "102320.277000", "102320.279000", "102320.281000", "102320.283000", "102320.285000", "102320.287000", "102320.289000", "102320.291000", "102320.293000", "102320.295000", "102320.297000", "102320.299000", "102400.260000", "102400.262000", "102400.264000", "102400.266000", "102400.268000", "102400.270000", "102400.272000", "102400.274000", "102400.276000", "102400.278000", "102400.280000", "102400.282000", "102400.284000", "102400.286000", "102400.288000", "102400.290000", "102400.292000", "102400.294000", "102400.296000", "102400.302000", "102440.261000", "102440.263000", "102440.265000", "102440.267000", "102440.269000", "102440.271000", "102440.273000", "102440.275000", "102440.277000", "102440.279000", "102440.281000", "102440.283000", "102440.285000", "102440.287000", "102440.289000", "102440.291000", "102440.293000", "102440.295000", "102440.297000", "102440.299000", "102520.261000", "102520.264000", "102520.266000", "102520.268000", "102520.270000", "102520.271000", "102520.273000", "102520.275000", "102520.277000", "102520.279000", "102520.281000", "102520.283000", "102520.285000", "102520.287000", "102520.289000", "102520.291000", "102520.293000", "102520.295000", "102520.297000", "102520.299000", "102600.260000", "102600.262000", "102600.264000", "102600.266000", "102600.268000", "102600.270000", "102600.272000", "102600.274000", "102600.276000", "102600.278000", "102600.280000", "102600.282000", "102600.284000", "102600.286000", "102600.288000", "102600.290000", "102600.292000", "102600.294000", "102600.296000", "102600.298000", "102640.260000", "102640.262000", "102640.264000", "102640.266000", "102640.268000", "102640.270000", "102640.272000", "102640.274000", "102640.281000", "102640.283000", "102640.285000", "102640.287000", "102640.289000", "102640.291000", "102640.292000", "102640.294000", "102640.296000", "102640.298000", "102640.300000", "102640.302000", "102720.261000", "102720.263000", "102720.265000", "102720.267000", "102720.269000", "102720.271000", "102720.273000", "102720.275000", "102720.277000", "102720.279000", "102720.281000", "102720.283000", "102720.285000", "102720.287000", "102720.289000", "102720.291000", "102720.293000", "102720.295000", "102720.297000", "102720.299000", "102800.260000", "102800.262000", "102800.264000", "102800.266000", "102800.268000", "102800.270000", "102800.272000", "102800.274000", "102800.277000", "102800.279000", "102800.280000", "102800.282000", "102800.285000", "102800.287000", "102800.289000", "102800.291000", "102800.293000", "102800.295000", "102800.297000", "102800.299000", "102840.260000", "102840.262000", "102840.264000", "102840.266000", "102840.268000", "102840.270000", "102840.272000", "102840.274000", "102840.276000", "102840.278000", "102840.280000", "102840.282000", "102840.284000", "102840.286000", "102840.288000", "102840.290000", "102840.292000", "102840.294000", "102840.296000", "102840.302000", "102919.803000", "102919.805000", "102919.807000", "102919.809000", "102919.811000", "102919.813000", "102919.815000", "102919.817000", "102919.819000", "102919.821000", "102919.823000", "102919.825000", "102919.827000", "102919.832000", "102919.834000", "102919.838000", "102919.840000", "102919.842000", "102919.844000", "102919.846000"],
      "InstanceCreationTime": ["101800.266000", "101800.269000", "101800.271000", "101800.273000", "101800.275000", "101800.277000", "101800.279000", "101800.281000", "101800.283000", "101800.285000", "101800.287000", "101800.289000", "101800.291000", "101800.298000", "101800.300000", "101800.302000", "101800.304000", "101800.306000", "101800.308000", "101800.310000", "101800.312000", "101800.314000", "101800.316000", "101800.318000", "101840.261000", "101840.263000", "101840.265000", "101840.267000", "101840.269000", "101840.271000", "101840.273000", "101840.275000", "101840.278000", "101840.279000", "101840.281000", "101840.283000", "101840.286000", "101840.288000", "101840.289000", "101840.291000", "101840.293000", "101840.295000", "101840.297000", "101840.299000", "101920.260000", "101920.262000", "101920.264000", "101920.266000", "101920.268000", "101920.270000", "101920.272000", "101920.274000", "101920.276000", "101920.278000", "101920.280000", "101920.282000", "101920.284000", "101920.286000", "101920.288000", "101920.290000", "101920.292000", "101920.294000", "101920.296000", "101920.298000", "102000.260000", "102000.262000", "102000.264000", "102000.266000", "102000.269000", "102000.271000", "102000.272000", "102000.274000", "102000.277000", "102000.278000", "102000.280000", "102000.282000", "102000.284000", "102000.286000", "102000.288000", "102000.290000", "102000.292000", "102000.294000", "102000.296000", "102000.298000", "102040.261000", "102040.263000", "102040.265000", "102040.267000", "102040.269000", "102040.271000", "102040.273000", "102040.275000", "102040.277000", "102040.279000", "102040.281000", "102040.283000", "102040.285000", "102040.287000", "102040.289000", "102040.291000", "102040.293000", "102040.295000", "102040.297000", "102040.299000", "102120.260000", "102120.262000", "102120.264000", "102120.266000", "102120.268000", "102120.270000", "102120.272000", "102120.274000", "102120.276000", "102120.278000", "102120.280000", "102120.282000", "102120.284000", "102120.286000", "102120.288000", "102120.290000", "102120.292000", "102120.294000", "102120.296000", "102120.298000", "102200.260000", "102200.262000", "102200.271000", "102200.285000", "102200.287000", "102200.289000", "102200.291000", "102200.293000", "102200.295000", "102200.297000", "102200.299000", "102200.301000", "102200.303000", "102200.305000", "102200.307000", "102200.309000", "102200.311000", "102200.313000", "102200.315000", "102200.317000", "102240.261000", "102240.263000", "102240.265000", "102240.267000", "102240.269000", "102240.271000", "102240.273000", "102240.275000", "102240.277000", "102240.279000", "102240.281000", "102240.283000", "102240.285000", "102240.287000", "102240.289000", "102240.291000", "102240.293000", "102240.295000", "102240.297000", "102240.299000", "102320.261000", "102320.263000", "102320.265000", "102320.267000", "102320.269000", "102320.271000", "102320.273000", "102320.275000", "102320.277000", "102320.279000", "102320.281000", "102320.283000", "102320.285000", "102320.287000", "102320.289000", "102320.291000", "102320.293000", "102320.295000", "102320.297000", "102320.299000", "102400.260000", "102400.262000", "102400.264000", "102400.266000", "102400.268000", "102400.270000", "102400.272000", "102400.274000", "102400.276000", "102400.278000", "102400.280000", "102400.282000", "102400.284000", "102400.286000", "102400.288000", "102400.290000", "102400.292000", "102400.294000", "102400.296000", "102400.302000", "102440.261000", "102440.263000", "102440.265000", "102440.267000", "102440.269000", "102440.271000", "102440.273000", "102440.275000", "102440.277000", "102440.279000", "102440.281000", "102440.283000", "102440.285000", "102440.287000", "102440.289000", "102440.291000", "102440.293000", "102440.295000", "102440.297000", "102440.299000", "102520.261000", "102520.264000", "102520.266000", "102520.268000", "102520.270000", "102520.271000", "102520.273000", "102520.275000", "102520.277000", "102520.279000", "102520.281000", "102520.283000", "102520.285000", "102520.287000", "102520.289000", "102520.291000", "102520.293000", "102520.295000", "102520.297000", "102520.299000", "102600.260000", "102600.262000", "102600.264000", "102600.266000", "102600.268000", "102600.270000", "102600.272000", "102600.274000", "102600.276000", "102600.278000", "102600.280000", "102600.282000", "102600.284000", "102600.286000", "102600.288000", "102600.290000", "102600.292000", "102600.294000", "102600.296000", "102600.298000", "102640.260000", "102640.262000", "102640.264000", "102640.266000", "102640.268000", "102640.270000", "102640.272000", "102640.274000", "102640.281000", "102640.283000", "102640.285000", "102640.287000", "102640.289000", "102640.291000", "102640.292000", "102640.294000", "102640.296000", "102640.298000", "102640.300000", "102640.302000", "102720.261000", "102720.263000", "102720.265000", "102720.267000", "102720.269000", "102720.271000", "102720.273000", "102720.275000", "102720.277000", "102720.279000", "102720.281000", "102720.283000", "102720.285000", "102720.287000", "102720.289000", "102720.291000", "102720.293000", "102720.295000", "102720.297000", "102720.299000", "102800.260000", "102800.262000", "102800.264000", "102800.266000", "102800.268000", "102800.270000", "102800.272000", "102800.274000", "102800.277000", "102800.279000", "102800.280000", "102800.282000", "102800.285000", "102800.287000", "102800.289000", "102800.291000", "102800.293000", "102800.295000", "102800.297000", "102800.299000", "102840.260000", "102840.262000", "102840.264000", "102840.266000", "102840.268000", "102840.270000", "102840.272000", "102840.274000", "102840.276000", "102840.278000", "102840.280000", "102840.282000", "102840.284000", "102840.286000", "102840.288000", "102840.290000", "102840.292000", "102840.294000", "102840.296000", "102840.302000", "102919.803000", "102919.805000", "102919.807000", "102919.809000", "102919.811000", "102919.813000", "102919.815000", "102919.817000", "102919.819000", "102919.821000", "102919.823000", "102919.825000", "102919.827000", "102919.832000", "102919.834000", "102919.838000", "102919.840000", "102919.842000", "102919.844000", "102919.846000"],
      "InstanceNumber": [1, 2, 3, 4, 5, 6, 7, 8, 9, 10, 11, 12, 13, 14, 15, 16, 17, 18, 19, 20, 21, 22, 23, 24, 25, 26, 27, 28, 29, 30, 31, 32, 33, 34, 35, 36, 37, 38, 39, 40, 41, 42, 43, 44, 45, 46, 47, 48, 49, 50, 51, 52, 53, 54, 55, 56, 57, 58, 59, 60, 61, 62, 63, 64, 65, 66, 67, 68, 69, 70, 71, 72, 73, 74, 75, 76, 77, 78, 79, 80, 81, 82, 83, 84, 85, 86, 87, 88, 89, 90, 91, 92, 93, 94, 95, 96, 97, 98, 99, 100, 101, 102, 103, 104, 105, 106, 107, 108, 109, 110, 111, 112, 113, 114, 115, 116, 117, 118, 119, 120, 121, 122, 123, 124, 125, 126, 127, 128, 129, 130, 131, 132, 133, 134, 135, 136, 137, 138, 139, 140, 141, 142, 143, 144, 145, 146, 147, 148, 149, 150, 151, 152, 153, 154, 155, 156, 157, 158, 159, 160, 161, 162, 163, 164, 165, 166, 167, 168, 169, 170, 171, 172, 173, 174, 175, 176, 177, 178, 179, 180, 181, 182, 183, 184, 185, 186, 187, 188, 189, 190, 191, 192, 193, 194, 195, 196, 197, 198, 199, 200, 201, 202, 203, 204, 205, 206, 207, 208, 209, 210, 211, 212, 213, 214, 215, 216, 217, 218, 219, 220, 221, 222, 223, 224, 225, 226, 227, 228, 229, 230, 231, 232, 233, 234, 235, 236, 237, 238, 239, 240, 241, 242, 243, 244, 245, 246, 247, 248, 249, 250, 251, 252, 253, 254, 255, 256, 257, 258, 259, 260, 261, 262, 263, 264, 265, 266, 267, 268, 269, 270, 271, 272, 273, 274, 275, 276, 277, 278, 279, 280, 281, 282, 283, 284, 285, 286, 287, 288, 289, 290, 291, 292, 293, 294, 295, 296, 297, 298, 299, 300, 301, 302, 303, 304, 305, 306, 307, 308, 309, 310, 311, 312, 313, 314, 315, 316, 317, 318, 319, 320, 321, 322, 323, 324, 325, 326, 327, 328, 329, 330, 331, 332, 333, 334, 335, 336, 337, 338, 339, 340, 341, 342, 343, 344, 345, 346, 347, 348, 349, 350, 351, 352, 353, 354, 355, 356, 357, 358, 359, 360, 361, 362, 363, 364],
      "LargestImagePixelValue": [3285, 3169, 3131, 3117, 3101, 3112, 3130, 3145, 3152, 3161, 3163, 3168, 3169, 3165, 3172, 3169, 3180, 3171, 3169, 3170, 3169, 3175, 3175, 3174, 3170, 3174, 3182, 3198, 3191, 3191, 3177, 3175, 3175, 3203, 3204, 3192, 3204, 3198, 3189, 3198, 3192, 3196, 3206, 3201, 3201, 3183, 3197, 3197, 3189, 3198, 3196, 3200, 3190, 3186, 3180, 3191, 3202, 3211, 3211, 3197, 3179, 3161, 3137, 3161, 3175, 3181, 3182, 3189, 3195, 3215, 3209, 3186, 3190, 3194, 3183, 3194, 3196, 3199, 3200, 3194, 3197, 3203, 3192, 3189, 3197, 3199, 3191, 3192, 3179, 3164, 3141, 3139, 3126, 3147, 3149, 3155, 3153, 3162, 3168, 3166, 3156, 3176, 3179, 3158, 3186, 3190, 3197, 3187, 3178, 3188, 3196, 3190, 3186, 3193, 3189, 3165, 3179, 3183, 3191, 3168, 3140, 3130, 3144, 3159, 3149, 3159, 3166, 3166, 3170, 3169, 3171, 3184, 3194, 3203, 3207, 3219, 3212, 3220, 3217, 3215, 3211, 3214, 3209, 3219, 3211, 3208, 3209, 3200, 3200, 3182, 3146, 3159, 3175, 3188, 3201, 3200, 3200, 3208, 3208, 3202, 3200, 3213, 3212, 3209, 3213, 3195, 3207, 3204, 3181, 3181, 3206, 3200, 3181, 3176, 3177, 3184, 3183, 3201, 3196, 3197, 3191, 3143, 3127, 3166, 3187, 3170, 3166, 3158, 3157, 3149, 3149, 3145, 3163, 3154, 3166, 3157, 3165, 3156, 3152, 3156, 3181, 3192, 3191, 3189, 3188, 3184, 3158, 3179, 3177, 3157, 3160, 3173, 3151, 3182, 3173, 3170, 3172, 3179, 3191, 3183, 3182, 3195, 3191, 3194, 3193, 3171, 3198, 3194, 3192, 3185, 3176, 3195, 3186, 3186, 3195, 3191, 3188, 3202, 3191, 3180, 3169, 3190, 3178, 3203, 3211, 3208, 3193, 3198, 3207, 3207, 3206, 3193, 3191, 3206, 3198, 3190, 3195, 3179, 3179, 3185, 3198, 3203, 3194, 3190, 3193, 3197, 3177, 3183, 3174, 3154, 3094, 3122, 3137, 3136, 3154, 3151, 3153, 3153, 3172, 3167, 3156, 3165, 3180, 3188, 3195, 3198, 3207, 3216, 3213, 3215, 3209, 3217, 3208, 3191, 3185, 3162, 3191, 3205, 3208, 3197, 3175, 3181, 3174, 3200, 3193, 3186, 3179, 3180, 3191, 3192, 3189, 3197, 3188, 3200, 3200, 3201, 3189, 3195, 3200, 3212, 3204, 3219, 3219, 3209, 3218, 3217, 3210, 3223, 3219, 3215, 3123, 3118, 3131, 3157, 3149, 3153, 3160, 3169, 3172, 3171, 3182, 3202, 3196, 3193, 3189, 3189, 3190, 3186, 3195, 3202, 3201, 3203, 3209, 3200, 3214, 3223, 3223, 3212, 3200, 3203, 3207, 3198, 3195, 3192],
