{
  "AcquisitionMatrixPE": 64,
  "AcquisitionNumber": 1,
  "AcquisitionTime": "16:11:17.082500",
  "BandwidthPerPixelPhaseEncode": 25.202,
  "BaseResolution": 64,
  "BodyPartExamined": "BRAIN",
  "ConsistencyInfo": "N4_VD13C_LATEST_20121124",
  "ConversionSoftware": "dcm2niix",
  "ConversionSoftwareVersion": "v1.0.20201102",
  "DerivedVendorReportedEchoSpacing": 0.00061999,
  "DeviceSerialNumber": "45758",
  "DwellTime": 4.3e-06,
  "EchoTime": 0.03,
  "EchoTrainLength": 64,
  "EffectiveEchoSpacing": 0.00061999,
  "FlipAngle": 90,
  "ImageOrientationPatientDICOM": [1, -3.75546e-05, -0.000516914, 2.03064e-10, 0.997371, -0.0724602],
  "ImageType": [
    "ORIGINAL",
    "PRIMARY",
    "M",
    "ND",
    "MOSAIC"
],
  "ImagingFrequency": 123.2,
  "InPlanePhaseEncodingDirectionDICOM": "ROW",
  "InstitutionAddress": "Street StreetNo,City /652E4B/,District,KR,ZIP",
  "InstitutionName": "DGMIF",
  "InstitutionalDepartmentName": "Department",
  "MRAcquisitionType": "2D",
  "MagneticFieldStrength": 3,
  "Manufacturer": "Siemens",
  "ManufacturersModelName": "Skyra",
  "Modality": "MR",
  "PartialFourier": 1,
  "PatientPosition": "HFS",
  "PercentPhaseFOV": 100,
  "PercentSampling": 100,
  "PhaseEncodingDirection": "i",
  "PhaseEncodingSteps": 64,
  "PhaseResolution": 1,
  "PixelBandwidth": 1815,
  "ProcedureStepDescription": "DGMIF^DGIST_Jeon",
  "ProtocolName": "EPI_DGIST_3",
  "PulseSequenceDetails": "%SiemensSeq%\\ep2d_bold",
  "ReceiveCoilActiveElements": "HC1-7",
  "ReceiveCoilName": "HeadNeck_64",
  "ReconMatrixPE": 64,
  "RepetitionTime": 2,
  "SAR": 0.137362,
  "ScanOptions": "FS",
  "ScanningSequence": "EP",
  "SequenceName": "*epfid2d1_64",
  "SequenceVariant": "SK",
  "SeriesDescription": "EPI_DGIST_3",
  "SeriesNumber": 4,
  "ShimSetting": [-9760, -13781, -8172, 271, -567, -315, 131, -119],
  "SliceThickness": 4,
  "SliceTiming": [0.9875, 0, 1.055, 0.065, 1.12, 0.13, 1.1875, 0.1975, 1.2525, 0.2625, 1.3175, 0.3275, 1.385, 0.395, 1.45, 0.46, 1.5175, 0.5275, 1.5825, 0.5925, 1.6475, 0.6575, 1.715, 0.725, 1.78, 0.79, 1.8475, 0.8575, 1.9125, 0.9225],
  "SoftwareVersions": "syngo MR D13C",
  "SpacingBetweenSlices": 4.8,
  "StationName": "AWP45758",
  "TaskName": "asrt",
  "TotalReadoutTime": 0.0390594,
  "TxRefAmp": 334.726,
  "dcmmeta_affine": [
    [-2.999999523162842, 6.091919746431529e-10, -0.00248772744089365, 92.2884750366211],
    [0.00011266390356468037, 2.9921138286590576, -0.3478090167045593, -115.90925598144531],
    [-0.0015507424250245094, 0.21738065779209137, 4.787381649017334, -70.33409881591797],
    [0.0, 0.0, 0.0, 1.0]
],
  "dcmmeta_reorient_transform": [
    [0.0, -1.0, 0.0, 63.0],
    [1.0, 0.0, 0.0, 0.0],
    [0.0, 0.0, 1.0, 0.0],
    [0.0, 0.0, 0.0, 1.0]
],
  "dcmmeta_shape": [64, 64, 30, 364],
  "dcmmeta_slice_dim": 2,
  "dcmmeta_version": 0.6,
  "global": {
    "const": {
      "AcquisitionMatrix": [0, 64, 64, 0],
      "AngioFlag": "N",
      "BitsAllocated": 16,
      "BitsStored": 12,
      "BodyPartExamined": "BRAIN",
      "Columns": 384,
      "EchoNumbers": 1,
      "EchoTime": 30.0,
      "EchoTrainLength": 64,
      "FlipAngle": 90.0,
      "HighBit": 11,
      "ImageOrientationPatient": [0.9999998656947, -3.75546344e-05, -0.0005169141427, 2.03064e-10, 0.99737130336567, -0.0724602182075],
      "ImagePositionPatient": [-572.28840971466, -551.31411948773, -21.610092115404],
      "ImageType": [
        "ORIGINAL",
        "PRIMARY",
        "M",
        "ND",
        "MOSAIC"
],
      "ImagedNucleus": "1H",
      "ImagingFrequency": 123.200206,
      "InPlanePhaseEncodingDirection": "ROW",
      "MRAcquisitionType": "2D",
      "MagneticFieldStrength": 3.0,
      "Manufacturer": "SIEMENS",
      "ManufacturerModelName": "Skyra",
      "Modality": "MR",
      "NumberOfAverages": 1.0,
      "NumberOfPhaseEncodingSteps": 64,
      "PercentPhaseFieldOfView": 100.0,
      "PercentSampling": 100.0,
      "PerformedProcedureStepStartTime": "153439.768000",
      "PhotometricInterpretation": "MONOCHROME2",
      "PixelBandwidth": 1815.0,
      "PixelRepresentation": 0,
      "PixelSpacing": [3.0, 3.0],
      "ProtocolName": "EPI_DGIST_3",
      "RepetitionTime": 2000.0,
      "Rows": 384,
      "SAR": 0.1373616930823,
      "SamplesPerPixel": 1,
      "ScanOptions": "FS",
      "ScanningSequence": "EP",
      "SequenceName": "*epfid2d1_64",
      "SequenceVariant": "SK",
      "SeriesDescription": "EPI_DGIST_3",
      "SeriesNumber": 4,
      "SeriesTime": "161200.761000",
      "SliceLocation": -61.798222540053,
      "SliceThickness": 4.0,
      "SmallestImagePixelValue": 0,
      "SoftwareVersions": "syngo MR D13C",
      "SpacingBetweenSlices": 4.8000000498726,
      "SpecificCharacterSet": "ISO_IR 100",
      "StudyID": "1",
      "StudyTime": "153439.707000",
      "TimeOfLastCalibration": ["123723.000000", "123723.000000"],
      "TransmitCoilName": "Body",
      "VariableFlipAngleFlag": "N",
      "WindowCenterWidthExplanation": "Algo1",
      "dBdt": 0.0},
    "slices": {}
  },
  "time": {
    "samples": {
      "AcquisitionNumber": [1, 2, 3, 4, 5, 6, 7, 8, 9, 10, 11, 12, 13, 14, 15, 16, 17, 18, 19, 20, 21, 22, 23, 24, 25, 26, 27, 28, 29, 30, 31, 32, 33, 34, 35, 36, 37, 38, 39, 40, 41, 42, 43, 44, 45, 46, 47, 48, 49, 50, 51, 52, 53, 54, 55, 56, 57, 58, 59, 60, 61, 62, 63, 64, 65, 66, 67, 68, 69, 70, 71, 72, 73, 74, 75, 76, 77, 78, 79, 80, 81, 82, 83, 84, 85, 86, 87, 88, 89, 90, 91, 92, 93, 94, 95, 96, 97, 98, 99, 100, 101, 102, 103, 104, 105, 106, 107, 108, 109, 110, 111, 112, 113, 114, 115, 116, 117, 118, 119, 120, 121, 122, 123, 124, 125, 126, 127, 128, 129, 130, 131, 132, 133, 134, 135, 136, 137, 138, 139, 140, 141, 142, 143, 144, 145, 146, 147, 148, 149, 150, 151, 152, 153, 154, 155, 156, 157, 158, 159, 160, 161, 162, 163, 164, 165, 166, 167, 168, 169, 170, 171, 172, 173, 174, 175, 176, 177, 178, 179, 180, 181, 182, 183, 184, 185, 186, 187, 188, 189, 190, 191, 192, 193, 194, 195, 196, 197, 198, 199, 200, 201, 202, 203, 204, 205, 206, 207, 208, 209, 210, 211, 212, 213, 214, 215, 216, 217, 218, 219, 220, 221, 222, 223, 224, 225, 226, 227, 228, 229, 230, 231, 232, 233, 234, 235, 236, 237, 238, 239, 240, 241, 242, 243, 244, 245, 246, 247, 248, 249, 250, 251, 252, 253, 254, 255, 256, 257, 258, 259, 260, 261, 262, 263, 264, 265, 266, 267, 268, 269, 270, 271, 272, 273, 274, 275, 276, 277, 278, 279, 280, 281, 282, 283, 284, 285, 286, 287, 288, 289, 290, 291, 292, 293, 294, 295, 296, 297, 298, 299, 300, 301, 302, 303, 304, 305, 306, 307, 308, 309, 310, 311, 312, 313, 314, 315, 316, 317, 318, 319, 320, 321, 322, 323, 324, 325, 326, 327, 328, 329, 330, 331, 332, 333, 334, 335, 336, 337, 338, 339, 340, 341, 342, 343, 344, 345, 346, 347, 348, 349, 350, 351, 352, 353, 354, 355, 356, 357, 358, 359, 360, 361, 362, 363, 364],
      "AcquisitionTime": ["161117.082500", "161119.082500", "161121.082500", "161123.082500", "161125.082500", "161127.082500", "161129.082500", "161131.082500", "161133.082500", "161135.082500", "161137.082500", "161139.085000", "161141.085000", "161143.085000", "161145.085000", "161147.085000", "161149.085000", "161151.085000", "161153.085000", "161155.085000", "161157.085000", "161159.085000", "161201.085000", "161203.085000", "161205.085000", "161207.085000", "161209.085000", "161211.085000", "161213.085000", "161215.085000", "161217.085000", "161219.085000", "161221.085000", "161223.085000", "161225.085000", "161227.085000", "161229.085000", "161231.085000", "161233.085000", "161235.085000", "161237.085000", "161239.085000", "161241.085000", "161243.085000", "161245.085000", "161247.085000", "161249.085000", "161251.085000", "161253.085000", "161255.085000", "161257.085000", "161259.085000", "161301.085000", "161303.085000", "161305.085000", "161307.085000", "161309.085000", "161311.085000", "161313.085000", "161315.085000", "161317.085000", "161319.085000", "161321.085000", "161323.085000", "161325.085000", "161327.085000", "161329.085000", "161331.085000", "161333.085000", "161335.085000", "161337.085000", "161339.085000", "161341.085000", "161343.085000", "161345.085000", "161347.085000", "161349.085000", "161351.085000", "161353.085000", "161355.085000", "161357.085000", "161359.085000", "161401.085000", "161403.085000", "161405.085000", "161407.085000", "161409.085000", "161411.085000", "161413.085000", "161415.085000", "161417.085000", "161419.085000", "161421.085000", "161423.085000", "161425.085000", "161427.085000", "161429.085000", "161431.085000", "161433.085000", "161435.085000", "161437.085000", "161439.085000", "161441.085000", "161443.085000", "161445.085000", "161447.085000", "161449.085000", "161451.085000", "161453.085000", "161455.085000", "161457.085000", "161459.085000", "161501.085000", "161503.085000", "161505.085000", "161507.085000", "161509.085000", "161511.085000", "161513.085000", "161515.085000", "161517.085000", "161519.085000", "161521.085000", "161523.085000", "161525.085000", "161527.085000", "161529.085000", "161531.085000", "161533.085000", "161535.085000", "161537.085000", "161539.085000", "161541.085000", "161543.085000", "161545.085000", "161547.085000", "161549.085000", "161551.085000", "161553.085000", "161555.085000", "161557.085000", "161559.085000", "161601.085000", "161603.085000", "161605.085000", "161607.085000", "161609.085000", "161611.085000", "161613.085000", "161615.085000", "161617.085000", "161619.085000", "161621.085000", "161623.085000", "161625.085000", "161627.085000", "161629.085000", "161631.085000", "161633.085000", "161635.085000", "161637.085000", "161639.085000", "161641.085000", "161643.085000", "161645.085000", "161647.085000", "161649.085000", "161651.085000", "161653.085000", "161655.085000", "161657.085000", "161659.085000", "161701.085000", "161703.085000", "161705.085000", "161707.085000", "161709.085000", "161711.085000", "161713.085000", "161715.085000", "161717.085000", "161719.085000", "161721.085000", "161723.085000", "161725.085000", "161727.085000", "161729.085000", "161731.085000", "161733.085000", "161735.085000", "161737.085000", "161739.085000", "161741.085000", "161743.085000", "161745.085000", "161747.085000", "161749.085000", "161751.085000", "161753.085000", "161755.085000", "161757.085000", "161759.085000", "161801.085000", "161803.085000", "161805.085000", "161807.085000", "161809.085000", "161811.085000", "161813.085000", "161815.085000", "161817.085000", "161819.085000", "161821.085000", "161823.085000", "161825.085000", "161827.085000", "161829.085000", "161831.085000", "161833.085000", "161835.085000", "161837.085000", "161839.085000", "161841.085000", "161843.085000", "161845.085000", "161847.085000", "161849.085000", "161851.085000", "161853.085000", "161855.085000", "161857.085000", "161859.085000", "161901.085000", "161903.085000", "161905.085000", "161907.085000", "161909.085000", "161911.085000", "161913.085000", "161915.085000", "161917.085000", "161919.085000", "161921.085000", "161923.085000", "161925.085000", "161927.085000", "161929.085000", "161931.085000", "161933.085000", "161935.085000", "161937.085000", "161939.085000", "161941.085000", "161943.085000", "161945.085000", "161947.085000", "161949.085000", "161951.085000", "161953.085000", "161955.085000", "161957.085000", "161959.087500", "162001.087500", "162003.087500", "162005.087500", "162007.087500", "162009.087500", "162011.087500", "162013.087500", "162015.087500", "162017.087500", "162019.087500", "162021.087500", "162023.087500", "162025.087500", "162027.087500", "162029.087500", "162031.087500", "162033.087500", "162035.087500", "162037.087500", "162039.087500", "162041.087500", "162043.087500", "162045.087500", "162047.087500", "162049.087500", "162051.087500", "162053.087500", "162055.087500", "162057.087500", "162059.087500", "162101.087500", "162103.087500", "162105.087500", "162107.087500", "162109.087500", "162111.087500", "162113.087500", "162115.087500", "162117.087500", "162119.087500", "162121.087500", "162123.087500", "162125.087500", "162127.087500", "162129.087500", "162131.087500", "162133.087500", "162135.087500", "162137.087500", "162139.087500", "162141.087500", "162143.087500", "162145.087500", "162147.087500", "162149.087500", "162151.087500", "162153.087500", "162155.087500", "162157.087500", "162159.087500", "162201.087500", "162203.087500", "162205.087500", "162207.087500", "162209.087500", "162211.087500", "162213.087500", "162215.087500", "162217.087500", "162219.087500", "162221.087500", "162223.087500", "162225.087500", "162227.087500", "162229.087500", "162231.087500", "162233.087500", "162235.087500", "162237.087500", "162239.087500", "162241.087500", "162243.087500", "162245.087500", "162247.087500", "162249.087500", "162251.087500", "162253.087500", "162255.087500", "162257.087500", "162259.087500", "162301.087500", "162303.087500", "162305.087500", "162307.087500", "162309.087500", "162311.087500", "162313.087500", "162315.087500", "162317.087500", "162319.087500", "162321.087500", "162323.087500"],
      "ContentTime": ["161200.764000", "161200.766000", "161200.773000", "161200.775000", "161200.777000", "161200.779000", "161200.781000", "161200.783000", "161200.789000", "161200.791000", "161200.793000", "161200.795000", "161200.797000", "161200.799000", "161200.801000", "161200.803000", "161200.805000", "161200.807000", "161200.809000", "161200.811000", "161200.813000", "161200.815000", "161240.760000", "161240.762000", "161240.764000", "161240.766000", "161240.768000", "161240.770000", "161240.772000", "161240.774000", "161240.776000", "161240.784000", "161240.786000", "161240.788000", "161240.790000", "161240.792000", "161240.794000", "161240.796000", "161240.798000", "161240.800000", "161240.802000", "161240.804000", "161320.759000", "161320.761000", "161320.763000", "161320.766000", "161320.767000", "161320.769000", "161320.771000", "161320.773000", "161320.775000", "161320.777000", "161320.779000", "161320.781000", "161320.783000", "161320.785000", "161320.787000", "161320.789000", "161320.791000", "161320.793000", "161320.795000", "161320.797000", "161400.759000", "161400.773000", "161400.775000", "161400.777000", "161400.779000", "161400.781000", "161400.783000", "161400.785000", "161400.787000", "161400.793000", "161400.795000", "161400.797000", "161400.799000", "161400.801000", "161400.803000", "161400.805000", "161400.807000", "161400.809000", "161400.811000", "161400.813000", "161440.760000", "161440.762000", "161440.764000", "161440.767000", "161440.768000", "161440.770000", "161440.772000", "161440.774000", "161440.776000", "161440.778000", "161440.780000", "161440.783000", "161440.784000", "161440.786000", "161440.788000", "161440.790000", "161440.792000", "161440.794000", "161440.796000", "161440.798000", "161520.759000", "161520.761000", "161520.763000", "161520.765000", "161520.767000", "161520.769000", "161520.771000", "161520.773000", "161520.775000", "161520.777000", "161520.779000", "161520.781000", "161520.783000", "161520.785000", "161520.787000", "161520.789000", "161520.791000", "161520.793000", "161520.795000", "161520.797000", "161600.759000", "161600.761000", "161600.763000", "161600.765000", "161600.767000", "161600.770000", "161600.772000", "161600.774000", "161600.776000", "161600.778000", "161600.779000", "161600.782000", "161600.784000", "161600.785000", "161600.787000", "161600.790000", "161600.791000", "161600.793000", "161600.795000", "161600.797000", "161640.759000", "161640.761000", "161640.763000", "161640.770000", "161640.772000", "161640.774000", "161640.776000", "161640.778000", "161640.780000", "161640.782000", "161640.784000", "161640.786000", "161640.788000", "161640.790000", "161640.792000", "161640.794000", "161640.796000", "161640.798000", "161640.800000", "161640.802000", "161720.760000", "161720.762000", "161720.764000", "161720.766000", "161720.768000", "161720.770000", "161720.772000", "161720.775000", "161720.777000", "161720.779000", "161720.781000", "161720.783000", "161720.785000", "161720.787000", "161720.789000", "161720.791000", "161720.793000", "161720.795000", "161720.797000", "161720.799000", "161800.759000", "161800.761000", "161800.763000", "161800.765000", "161800.767000", "161800.769000", "161800.771000", "161800.773000", "161800.775000", "161800.777000", "161800.779000", "161800.781000", "161800.783000", "161800.785000", "161800.787000", "161800.789000", "161800.791000", "161800.793000", "161800.795000", "161800.797000", "161840.759000", "161840.761000", "161840.763000", "161840.766000", "161840.768000", "161840.770000", "161840.771000", "161840.774000", "161840.776000", "161840.778000", "161840.780000", "161840.782000", "161840.784000", "161840.786000", "161840.788000", "161840.790000", "161840.792000", "161840.794000", "161840.795000", "161840.798000", "161920.760000", "161920.762000", "161920.764000", "161920.767000", "161920.769000", "161920.771000", "161920.773000", "161920.775000", "161920.777000", "161920.779000", "161920.781000", "161920.783000", "161920.785000", "161920.787000", "161920.788000", "161920.791000", "161920.793000", "161920.795000", "161920.797000", "161920.799000", "162000.759000", "162000.761000", "162000.763000", "162000.765000", "162000.767000", "162000.769000", "162000.771000", "162000.773000", "162000.775000", "162000.777000", "162000.779000", "162000.781000", "162000.783000", "162000.785000", "162000.787000", "162000.789000", "162000.791000", "162000.793000", "162000.795000", "162000.797000", "162040.759000", "162040.761000", "162040.763000", "162040.766000", "162040.767000", "162040.769000", "162040.771000", "162040.774000", "162040.775000", "162040.777000", "162040.779000", "162040.781000", "162040.783000", "162040.785000", "162040.788000", "162040.790000", "162040.792000", "162040.794000", "162040.796000", "162040.798000", "162120.759000", "162120.761000", "162120.763000", "162120.766000", "162120.767000", "162120.769000", "162120.771000", "162120.773000", "162120.775000", "162120.777000", "162120.779000", "162120.782000", "162120.784000", "162120.785000", "162120.787000", "162120.790000", "162120.792000", "162120.794000", "162120.796000", "162120.798000", "162200.759000", "162200.761000", "162200.763000", "162200.766000", "162200.767000", "162200.769000", "162200.771000", "162200.773000", "162200.778000", "162200.780000", "162200.782000", "162200.784000", "162200.786000", "162200.788000", "162200.790000", "162200.792000", "162200.794000", "162200.796000", "162200.798000", "162200.800000", "162240.759000", "162240.761000", "162240.763000", "162240.765000", "162240.767000", "162240.769000", "162240.771000", "162240.774000", "162240.776000", "162240.778000", "162240.779000", "162240.782000", "162240.784000", "162240.786000", "162240.787000", "162240.790000", "162240.792000", "162240.794000", "162240.802000", "162240.804000", "162320.759000", "162320.761000", "162320.763000", "162320.766000", "162320.768000", "162320.769000", "162320.771000", "162320.773000", "162320.775000", "162320.777000", "162320.779000", "162320.782000", "162320.784000", "162320.786000", "162320.787000", "162320.790000", "162320.792000", "162320.793000", "162320.795000", "162320.798000", "162324.588000", "162324.590000"],
      "InstanceCreationTime": ["161200.764000", "161200.766000", "161200.773000", "161200.775000", "161200.777000", "161200.779000", "161200.781000", "161200.783000", "161200.789000", "161200.791000", "161200.793000", "161200.795000", "161200.797000", "161200.799000", "161200.801000", "161200.803000", "161200.805000", "161200.807000", "161200.809000", "161200.811000", "161200.813000", "161200.815000", "161240.760000", "161240.762000", "161240.764000", "161240.766000", "161240.768000", "161240.770000", "161240.772000", "161240.774000", "161240.776000", "161240.784000", "161240.786000", "161240.788000", "161240.790000", "161240.792000", "161240.794000", "161240.796000", "161240.798000", "161240.800000", "161240.802000", "161240.804000", "161320.759000", "161320.761000", "161320.763000", "161320.766000", "161320.767000", "161320.769000", "161320.771000", "161320.773000", "161320.775000", "161320.777000", "161320.779000", "161320.781000", "161320.783000", "161320.785000", "161320.787000", "161320.789000", "161320.791000", "161320.793000", "161320.795000", "161320.797000", "161400.759000", "161400.773000", "161400.775000", "161400.777000", "161400.779000", "161400.781000", "161400.783000", "161400.785000", "161400.787000", "161400.793000", "161400.795000", "161400.797000", "161400.799000", "161400.801000", "161400.803000", "161400.805000", "161400.807000", "161400.809000", "161400.811000", "161400.813000", "161440.760000", "161440.762000", "161440.764000", "161440.767000", "161440.768000", "161440.770000", "161440.772000", "161440.774000", "161440.776000", "161440.778000", "161440.780000", "161440.783000", "161440.784000", "161440.786000", "161440.788000", "161440.790000", "161440.792000", "161440.794000", "161440.796000", "161440.798000", "161520.759000", "161520.761000", "161520.763000", "161520.765000", "161520.767000", "161520.769000", "161520.771000", "161520.773000", "161520.775000", "161520.777000", "161520.779000", "161520.781000", "161520.783000", "161520.785000", "161520.787000", "161520.789000", "161520.791000", "161520.793000", "161520.795000", "161520.797000", "161600.759000", "161600.761000", "161600.763000", "161600.765000", "161600.767000", "161600.770000", "161600.772000", "161600.774000", "161600.776000", "161600.778000", "161600.779000", "161600.782000", "161600.784000", "161600.785000", "161600.787000", "161600.790000", "161600.791000", "161600.793000", "161600.795000", "161600.797000", "161640.759000", "161640.761000", "161640.763000", "161640.770000", "161640.772000", "161640.774000", "161640.776000", "161640.778000", "161640.780000", "161640.782000", "161640.784000", "161640.786000", "161640.788000", "161640.790000", "161640.792000", "161640.794000", "161640.796000", "161640.798000", "161640.800000", "161640.802000", "161720.760000", "161720.762000", "161720.764000", "161720.766000", "161720.768000", "161720.770000", "161720.772000", "161720.775000", "161720.777000", "161720.779000", "161720.781000", "161720.783000", "161720.785000", "161720.787000", "161720.789000", "161720.791000", "161720.793000", "161720.795000", "161720.797000", "161720.799000", "161800.759000", "161800.761000", "161800.763000", "161800.765000", "161800.767000", "161800.769000", "161800.771000", "161800.773000", "161800.775000", "161800.777000", "161800.779000", "161800.781000", "161800.783000", "161800.785000", "161800.787000", "161800.789000", "161800.791000", "161800.793000", "161800.795000", "161800.797000", "161840.759000", "161840.761000", "161840.763000", "161840.766000", "161840.768000", "161840.770000", "161840.771000", "161840.774000", "161840.776000", "161840.778000", "161840.780000", "161840.782000", "161840.784000", "161840.786000", "161840.788000", "161840.790000", "161840.792000", "161840.794000", "161840.795000", "161840.798000", "161920.760000", "161920.762000", "161920.764000", "161920.767000", "161920.769000", "161920.771000", "161920.773000", "161920.775000", "161920.777000", "161920.779000", "161920.781000", "161920.783000", "161920.785000", "161920.787000", "161920.788000", "161920.791000", "161920.793000", "161920.795000", "161920.797000", "161920.799000", "162000.759000", "162000.761000", "162000.763000", "162000.765000", "162000.767000", "162000.769000", "162000.771000", "162000.773000", "162000.775000", "162000.777000", "162000.779000", "162000.781000", "162000.783000", "162000.785000", "162000.787000", "162000.789000", "162000.791000", "162000.793000", "162000.795000", "162000.797000", "162040.759000", "162040.761000", "162040.763000", "162040.766000", "162040.767000", "162040.769000", "162040.771000", "162040.774000", "162040.775000", "162040.777000", "162040.779000", "162040.781000", "162040.783000", "162040.785000", "162040.788000", "162040.790000", "162040.792000", "162040.794000", "162040.796000", "162040.798000", "162120.759000", "162120.761000", "162120.763000", "162120.766000", "162120.767000", "162120.769000", "162120.771000", "162120.773000", "162120.775000", "162120.777000", "162120.779000", "162120.782000", "162120.784000", "162120.785000", "162120.787000", "162120.790000", "162120.792000", "162120.794000", "162120.796000", "162120.798000", "162200.759000", "162200.761000", "162200.763000", "162200.766000", "162200.767000", "162200.769000", "162200.771000", "162200.773000", "162200.778000", "162200.780000", "162200.782000", "162200.784000", "162200.786000", "162200.788000", "162200.790000", "162200.792000", "162200.794000", "162200.796000", "162200.798000", "162200.800000", "162240.759000", "162240.761000", "162240.763000", "162240.765000", "162240.767000", "162240.769000", "162240.771000", "162240.774000", "162240.776000", "162240.778000", "162240.779000", "162240.782000", "162240.784000", "162240.786000", "162240.787000", "162240.790000", "162240.792000", "162240.794000", "162240.802000", "162240.804000", "162320.759000", "162320.761000", "162320.763000", "162320.766000", "162320.768000", "162320.769000", "162320.771000", "162320.773000", "162320.775000", "162320.777000", "162320.779000", "162320.782000", "162320.784000", "162320.786000", "162320.787000", "162320.790000", "162320.792000", "162320.793000", "162320.795000", "162320.798000", "162324.588000", "162324.590000"],
      "InstanceNumber": [1, 2, 3, 4, 5, 6, 7, 8, 9, 10, 11, 12, 13, 14, 15, 16, 17, 18, 19, 20, 21, 22, 23, 24, 25, 26, 27, 28, 29, 30, 31, 32, 33, 34, 35, 36, 37, 38, 39, 40, 41, 42, 43, 44, 45, 46, 47, 48, 49, 50, 51, 52, 53, 54, 55, 56, 57, 58, 59, 60, 61, 62, 63, 64, 65, 66, 67, 68, 69, 70, 71, 72, 73, 74, 75, 76, 77, 78, 79, 80, 81, 82, 83, 84, 85, 86, 87, 88, 89, 90, 91, 92, 93, 94, 95, 96, 97, 98, 99, 100, 101, 102, 103, 104, 105, 106, 107, 108, 109, 110, 111, 112, 113, 114, 115, 116, 117, 118, 119, 120, 121, 122, 123, 124, 125, 126, 127, 128, 129, 130, 131, 132, 133, 134, 135, 136, 137, 138, 139, 140, 141, 142, 143, 144, 145, 146, 147, 148, 149, 150, 151, 152, 153, 154, 155, 156, 157, 158, 159, 160, 161, 162, 163, 164, 165, 166, 167, 168, 169, 170, 171, 172, 173, 174, 175, 176, 177, 178, 179, 180, 181, 182, 183, 184, 185, 186, 187, 188, 189, 190, 191, 192, 193, 194, 195, 196, 197, 198, 199, 200, 201, 202, 203, 204, 205, 206, 207, 208, 209, 210, 211, 212, 213, 214, 215, 216, 217, 218, 219, 220, 221, 222, 223, 224, 225, 226, 227, 228, 229, 230, 231, 232, 233, 234, 235, 236, 237, 238, 239, 240, 241, 242, 243, 244, 245, 246, 247, 248, 249, 250, 251, 252, 253, 254, 255, 256, 257, 258, 259, 260, 261, 262, 263, 264, 265, 266, 267, 268, 269, 270, 271, 272, 273, 274, 275, 276, 277, 278, 279, 280, 281, 282, 283, 284, 285, 286, 287, 288, 289, 290, 291, 292, 293, 294, 295, 296, 297, 298, 299, 300, 301, 302, 303, 304, 305, 306, 307, 308, 309, 310, 311, 312, 313, 314, 315, 316, 317, 318, 319, 320, 321, 322, 323, 324, 325, 326, 327, 328, 329, 330, 331, 332, 333, 334, 335, 336, 337, 338, 339, 340, 341, 342, 343, 344, 345, 346, 347, 348, 349, 350, 351, 352, 353, 354, 355, 356, 357, 358, 359, 360, 361, 362, 363, 364],
      "LargestImagePixelValue": [3062, 2915, 2909, 2895, 2926, 2946, 2954, 2951, 2942, 2933, 2926, 2925, 2934, 2947, 2958, 2958, 2945, 2957, 2965, 2959, 2962, 2958, 2945, 2934, 2927, 2949, 2964, 2953, 2935, 2928, 2940, 2924, 2910, 2932, 2942, 2957, 2971, 2943, 2936, 2939, 2954, 2927, 2932, 2931, 2948, 2950, 2937, 2941, 2951, 2959, 2957, 2946, 2940, 2956, 2965, 2960, 2951, 2942, 2937, 2945, 2964, 2947, 2890, 2883, 2905, 2932, 2939, 2938, 2912, 2927, 2946, 2943, 2936, 2924, 2925, 2935, 2945, 2931, 2934, 2928, 2939, 2936, 2921, 2915, 2934, 2950, 2943, 2939, 2942, 2943, 2922, 2923, 2910, 2902, 2911, 2935, 2950, 2951, 2919, 2924, 2938, 2947, 2941, 2931, 2932, 2930, 2932, 2928, 2937, 2930, 2930, 2930, 2938, 2947, 2934, 2942, 2949, 2945, 2943, 2933, 2945, 2926, 2911, 2907, 2921, 2945, 2940, 2944, 2929, 2942, 2941, 2949, 2935, 2927, 2926, 2931, 2940, 2936, 2937, 2931, 2933, 2928, 2934, 2939, 2952, 2948, 2947, 2946, 2937, 2937, 2940, 2928, 2885, 2888, 2929, 2945, 2946, 2925, 2936, 2915, 2912, 2924, 2918, 2925, 2954, 2942, 2928, 2934, 2945, 2939, 2935, 2935, 2943, 2957, 2946, 2921, 2922, 2924, 2917, 2921, 2924, 2880, 2904, 2883, 2904, 2934, 2938, 2937, 2911, 2917, 2926, 2910, 2912, 2924, 2922, 2914, 2899, 2936, 2933, 2914, 2924, 2911, 2923, 2904, 2895, 2902, 2907, 2901, 2911, 2911, 2927, 2896, 2897, 2888, 2877, 2914, 2932, 2931, 2919, 2901, 2911, 2906, 2899, 2904, 2895, 2896, 2905, 2918, 2935, 2936, 2930, 2921, 2917, 2904, 2930, 2931, 2923, 2902, 2903, 2921, 2926, 2925, 2932, 2939, 2923, 2933, 2913, 2920, 2942, 2925, 2916, 2913, 2922, 2941, 2931, 2928, 2919, 2932, 2941, 2928, 2930, 2922, 2907, 2902, 2896, 2908, 2908, 2924, 2941, 2934, 2936, 2887, 2890, 2897, 2905, 2899, 2883, 2900, 2924, 2929, 2939, 2945, 2936, 2925, 2922, 2931, 2919, 2912, 2945, 2931, 2925, 2904, 2916, 2919, 2915, 2919, 2918, 2918, 2916, 2896, 2924, 2934, 2848, 2822, 2856, 2883, 2864, 2877, 2912, 2915, 2898, 2900, 2923, 2926, 2904, 2931, 2936, 2914, 2925, 2911, 2919, 2883, 2883, 2884, 2901, 2924, 2920, 2900, 2899, 2920, 2922, 2894, 2885, 2891, 2907, 2913, 2907, 2914, 2921, 2919, 2911, 2901, 2905, 2902, 2877, 2895, 2912, 2901, 2893, 2903, 2899, 2911, 2904, 2896, 2896, 2891, 2885, 2887, 2877, 2873, 2895, 2894, 2893, 2917],
