{
  "AcquisitionMatrixPE": 64,
  "AcquisitionNumber": 1,
  "AcquisitionTime": "15:57:17.495000",
  "BandwidthPerPixelPhaseEncode": 25.202,
  "BaseResolution": 64,
  "BodyPartExamined": "BRAIN",
  "ConsistencyInfo": "N4_VD13C_LATEST_20121124",
  "ConversionSoftware": "dcm2niix",
  "ConversionSoftwareVersion": "v1.0.20201102",
  "DerivedVendorReportedEchoSpacing": 0.00061999,
  "DeviceSerialNumber": "45758",
  "DwellTime": 4.3e-06,
  "EchoTime": 0.03,
  "EchoTrainLength": 64,
  "EffectiveEchoSpacing": 0.00061999,
  "FlipAngle": 90,
  "ImageOrientationPatientDICOM": [1, -3.75546e-05, -0.000516914, 2.03064e-10, 0.997371, -0.0724602],
  "ImageType": [
    "ORIGINAL",
    "PRIMARY",
    "M",
    "ND",
    "MOSAIC"
],
  "ImagingFrequency": 123.2,
  "InPlanePhaseEncodingDirectionDICOM": "ROW",
  "InstitutionAddress": "Street StreetNo,City /652E4B/,District,KR,ZIP",
  "InstitutionName": "DGMIF",
  "InstitutionalDepartmentName": "Department",
  "MRAcquisitionType": "2D",
  "MagneticFieldStrength": 3,
  "Manufacturer": "Siemens",
  "ManufacturersModelName": "Skyra",
  "Modality": "MR",
  "PartialFourier": 1,
  "PatientPosition": "HFS",
  "PercentPhaseFOV": 100,
  "PercentSampling": 100,
  "PhaseEncodingDirection": "i",
  "PhaseEncodingSteps": 64,
  "PhaseResolution": 1,
  "PixelBandwidth": 1815,
  "ProcedureStepDescription": "DGMIF^DGIST_Jeon",
  "ProtocolName": "EPI_DGIST_2",
  "PulseSequenceDetails": "%SiemensSeq%\\ep2d_bold",
  "ReceiveCoilActiveElements": "HC1-7",
  "ReceiveCoilName": "HeadNeck_64",
  "ReconMatrixPE": 64,
  "RepetitionTime": 2,
  "SAR": 0.137362,
  "ScanOptions": "FS",
  "ScanningSequence": "EP",
  "SequenceName": "*epfid2d1_64",
  "SequenceVariant": "SK",
  "SeriesDescription": "EPI_DGIST_2",
  "SeriesNumber": 3,
  "ShimSetting": [-9760, -13781, -8172, 271, -567, -315, 131, -119],
  "SliceThickness": 4,
  "SliceTiming": [0.99, 0, 1.055, 0.065, 1.12, 0.13, 1.1875, 0.1975, 1.2525, 0.2625, 1.32, 0.33, 1.385, 0.395, 1.45, 0.46, 1.5175, 0.5275, 1.5825, 0.5925, 1.65, 0.66, 1.715, 0.725, 1.78, 0.79, 1.8475, 0.8575, 1.9125, 0.9225],
  "SoftwareVersions": "syngo MR D13C",
  "SpacingBetweenSlices": 4.8,
  "StationName": "AWP45758",
  "TaskName": "asrt",
  "TotalReadoutTime": 0.0390594,
  "TxRefAmp": 334.726,
  "dcmmeta_affine": [
    [-2.999999523162842, 6.091919746431529e-10, -0.00248772744089365, 92.2884750366211],
    [0.00011266390356468037, 2.9921138286590576, -0.3478090167045593, -115.90925598144531],
    [-0.0015507424250245094, 0.21738065779209137, 4.787381649017334, -70.33409881591797],
    [0.0, 0.0, 0.0, 1.0]
],
  "dcmmeta_reorient_transform": [
    [0.0, -1.0, 0.0, 63.0],
    [1.0, 0.0, 0.0, 0.0],
    [0.0, 0.0, 1.0, 0.0],
    [0.0, 0.0, 0.0, 1.0]
],
  "dcmmeta_shape": [64, 64, 30, 364],
  "dcmmeta_slice_dim": 2,
  "dcmmeta_version": 0.6,
  "global": {
    "const": {
      "AcquisitionMatrix": [0, 64, 64, 0],
      "AngioFlag": "N",
      "BitsAllocated": 16,
      "BitsStored": 12,
      "BodyPartExamined": "BRAIN",
      "Columns": 384,
      "EchoNumbers": 1,
      "EchoTime": 30.0,
      "EchoTrainLength": 64,
      "FlipAngle": 90.0,
      "HighBit": 11,
      "ImageOrientationPatient": [0.9999998656947, -3.75546344e-05, -0.0005169141427, 2.03064e-10, 0.99737130336567, -0.0724602182075],
      "ImagePositionPatient": [-572.28840971466, -551.31411948773, -21.610092115404],
      "ImageType": [
        "ORIGINAL",
        "PRIMARY",
        "M",
        "ND",
        "MOSAIC"
],
      "ImagedNucleus": "1H",
      "ImagingFrequency": 123.200194,
      "InPlanePhaseEncodingDirection": "ROW",
      "MRAcquisitionType": "2D",
      "MagneticFieldStrength": 3.0,
      "Manufacturer": "SIEMENS",
      "ManufacturerModelName": "Skyra",
      "Modality": "MR",
      "NumberOfAverages": 1.0,
      "NumberOfPhaseEncodingSteps": 64,
      "PercentPhaseFieldOfView": 100.0,
      "PercentSampling": 100.0,
      "PerformedProcedureStepStartTime": "153439.768000",
      "PhotometricInterpretation": "MONOCHROME2",
      "PixelBandwidth": 1815.0,
      "PixelRepresentation": 0,
      "PixelSpacing": [3.0, 3.0],
      "ProtocolName": "EPI_DGIST_2",
      "RepetitionTime": 2000.0,
      "Rows": 384,
      "SAR": 0.1373616930823,
      "SamplesPerPixel": 1,
      "ScanOptions": "FS",
      "ScanningSequence": "EP",
      "SequenceName": "*epfid2d1_64",
      "SequenceVariant": "SK",
      "SeriesDescription": "EPI_DGIST_2",
      "SeriesNumber": 3,
      "SeriesTime": "155809.489000",
      "SliceLocation": -61.798222540053,
      "SliceThickness": 4.0,
      "SmallestImagePixelValue": 0,
      "SoftwareVersions": "syngo MR D13C",
      "SpacingBetweenSlices": 4.8000000498726,
      "SpecificCharacterSet": "ISO_IR 100",
      "StudyID": "1",
      "StudyTime": "153439.707000",
      "TimeOfLastCalibration": ["123723.000000", "123723.000000"],
      "TransmitCoilName": "Body",
      "VariableFlipAngleFlag": "N",
      "WindowCenterWidthExplanation": "Algo1",
      "dBdt": 0.0},
    "slices": {}
  },
  "time": {
    "samples": {
      "AcquisitionNumber": [1, 2, 3, 4, 5, 6, 7, 8, 9, 10, 11, 12, 13, 14, 15, 16, 17, 18, 19, 20, 21, 22, 23, 24, 25, 26, 27, 28, 29, 30, 31, 32, 33, 34, 35, 36, 37, 38, 39, 40, 41, 42, 43, 44, 45, 46, 47, 48, 49, 50, 51, 52, 53, 54, 55, 56, 57, 58, 59, 60, 61, 62, 63, 64, 65, 66, 67, 68, 69, 70, 71, 72, 73, 74, 75, 76, 77, 78, 79, 80, 81, 82, 83, 84, 85, 86, 87, 88, 89, 90, 91, 92, 93, 94, 95, 96, 97, 98, 99, 100, 101, 102, 103, 104, 105, 106, 107, 108, 109, 110, 111, 112, 113, 114, 115, 116, 117, 118, 119, 120, 121, 122, 123, 124, 125, 126, 127, 128, 129, 130, 131, 132, 133, 134, 135, 136, 137, 138, 139, 140, 141, 142, 143, 144, 145, 146, 147, 148, 149, 150, 151, 152, 153, 154, 155, 156, 157, 158, 159, 160, 161, 162, 163, 164, 165, 166, 167, 168, 169, 170, 171, 172, 173, 174, 175, 176, 177, 178, 179, 180, 181, 182, 183, 184, 185, 186, 187, 188, 189, 190, 191, 192, 193, 194, 195, 196, 197, 198, 199, 200, 201, 202, 203, 204, 205, 206, 207, 208, 209, 210, 211, 212, 213, 214, 215, 216, 217, 218, 219, 220, 221, 222, 223, 224, 225, 226, 227, 228, 229, 230, 231, 232, 233, 234, 235, 236, 237, 238, 239, 240, 241, 242, 243, 244, 245, 246, 247, 248, 249, 250, 251, 252, 253, 254, 255, 256, 257, 258, 259, 260, 261, 262, 263, 264, 265, 266, 267, 268, 269, 270, 271, 272, 273, 274, 275, 276, 277, 278, 279, 280, 281, 282, 283, 284, 285, 286, 287, 288, 289, 290, 291, 292, 293, 294, 295, 296, 297, 298, 299, 300, 301, 302, 303, 304, 305, 306, 307, 308, 309, 310, 311, 312, 313, 314, 315, 316, 317, 318, 319, 320, 321, 322, 323, 324, 325, 326, 327, 328, 329, 330, 331, 332, 333, 334, 335, 336, 337, 338, 339, 340, 341, 342, 343, 344, 345, 346, 347, 348, 349, 350, 351, 352, 353, 354, 355, 356, 357, 358, 359, 360, 361, 362, 363, 364],
      "AcquisitionTime": ["155717.495000", "155719.495000", "155721.495000", "155723.495000", "155725.495000", "155727.495000", "155729.495000", "155731.495000", "155733.495000", "155735.495000", "155737.495000", "155739.495000", "155741.495000", "155743.495000", "155745.495000", "155747.495000", "155749.495000", "155751.495000", "155753.495000", "155755.495000", "155757.495000", "155759.495000", "155801.495000", "155803.495000", "155805.495000", "155807.495000", "155809.495000", "155811.495000", "155813.495000", "155815.495000", "155817.495000", "155819.495000", "155821.495000", "155823.495000", "155825.495000", "155827.495000", "155829.495000", "155831.495000", "155833.495000", "155835.495000", "155837.495000", "155839.495000", "155841.495000", "155843.495000", "155845.495000", "155847.495000", "155849.495000", "155851.495000", "155853.495000", "155855.495000", "155857.495000", "155859.495000", "155901.495000", "155903.495000", "155905.495000", "155907.495000", "155909.495000", "155911.495000", "155913.495000", "155915.495000", "155917.495000", "155919.495000", "155921.495000", "155923.495000", "155925.495000", "155927.495000", "155929.495000", "155931.495000", "155933.495000", "155935.495000", "155937.495000", "155939.495000", "155941.495000", "155943.495000", "155945.495000", "155947.495000", "155949.495000", "155951.495000", "155953.495000", "155955.495000", "155957.495000", "155959.495000", "160001.495000", "160003.495000", "160005.495000", "160007.495000", "160009.495000", "160011.495000", "160013.495000", "160015.495000", "160017.495000", "160019.495000", "160021.495000", "160023.495000", "160025.495000", "160027.495000", "160029.495000", "160031.495000", "160033.495000", "160035.495000", "160037.495000", "160039.495000", "160041.495000", "160043.495000", "160045.495000", "160047.495000", "160049.495000", "160051.495000", "160053.495000", "160055.495000", "160057.495000", "160059.495000", "160101.495000", "160103.495000", "160105.495000", "160107.495000", "160109.495000", "160111.495000", "160113.495000", "160115.495000", "160117.495000", "160119.495000", "160121.495000", "160123.495000", "160125.495000", "160127.495000", "160129.495000", "160131.495000", "160133.495000", "160135.495000", "160137.495000", "160139.495000", "160141.495000", "160143.495000", "160145.495000", "160147.495000", "160149.495000", "160151.495000", "160153.495000", "160155.495000", "160157.495000", "160159.495000", "160201.495000", "160203.495000", "160205.495000", "160207.495000", "160209.495000", "160211.495000", "160213.495000", "160215.495000", "160217.495000", "160219.495000", "160221.495000", "160223.495000", "160225.495000", "160227.495000", "160229.495000", "160231.495000", "160233.495000", "160235.495000", "160237.495000", "160239.495000", "160241.495000", "160243.495000", "160245.495000", "160247.495000", "160249.495000", "160251.495000", "160253.495000", "160255.495000", "160257.495000", "160259.495000", "160301.495000", "160303.495000", "160305.495000", "160307.495000", "160309.495000", "160311.495000", "160313.495000", "160315.495000", "160317.495000", "160319.495000", "160321.495000", "160323.495000", "160325.495000", "160327.495000", "160329.495000", "160331.495000", "160333.495000", "160335.495000", "160337.495000", "160339.495000", "160341.495000", "160343.495000", "160345.495000", "160347.495000", "160349.495000", "160351.495000", "160353.495000", "160355.495000", "160357.495000", "160359.495000", "160401.495000", "160403.495000", "160405.495000", "160407.495000", "160409.495000", "160411.495000", "160413.495000", "160415.495000", "160417.495000", "160419.495000", "160421.495000", "160423.495000", "160425.495000", "160427.495000", "160429.495000", "160431.495000", "160433.495000", "160435.495000", "160437.495000", "160439.495000", "160441.495000", "160443.495000", "160445.495000", "160447.495000", "160449.495000", "160451.495000", "160453.495000", "160455.495000", "160457.495000", "160459.495000", "160501.495000", "160503.495000", "160505.495000", "160507.495000", "160509.495000", "160511.497500", "160513.497500", "160515.497500", "160517.497500", "160519.497500", "160521.497500", "160523.497500", "160525.497500", "160527.497500", "160529.497500", "160531.497500", "160533.497500", "160535.497500", "160537.497500", "160539.497500", "160541.497500", "160543.497500", "160545.497500", "160547.497500", "160549.497500", "160551.497500", "160553.497500", "160555.497500", "160557.497500", "160559.497500", "160601.497500", "160603.497500", "160605.497500", "160607.497500", "160609.497500", "160611.497500", "160613.497500", "160615.497500", "160617.497500", "160619.497500", "160621.497500", "160623.497500", "160625.497500", "160627.497500", "160629.497500", "160631.497500", "160633.497500", "160635.497500", "160637.497500", "160639.497500", "160641.497500", "160643.497500", "160645.497500", "160647.497500", "160649.497500", "160651.497500", "160653.497500", "160655.497500", "160657.497500", "160659.497500", "160701.497500", "160703.497500", "160705.497500", "160707.497500", "160709.497500", "160711.497500", "160713.497500", "160715.497500", "160717.497500", "160719.497500", "160721.497500", "160723.497500", "160725.497500", "160727.497500", "160729.497500", "160731.497500", "160733.497500", "160735.497500", "160737.497500", "160739.497500", "160741.497500", "160743.497500", "160745.497500", "160747.497500", "160749.497500", "160751.497500", "160753.497500", "160755.497500", "160757.497500", "160759.497500", "160801.497500", "160803.497500", "160805.497500", "160807.497500", "160809.497500", "160811.497500", "160813.497500", "160815.497500", "160817.497500", "160819.497500", "160821.497500", "160823.497500", "160825.497500", "160827.497500", "160829.497500", "160831.497500", "160833.497500", "160835.497500", "160837.497500", "160839.497500", "160841.497500", "160843.497500", "160845.497500", "160847.497500", "160849.497500", "160851.497500", "160853.497500", "160855.497500", "160857.497500", "160859.497500", "160901.497500", "160903.497500", "160905.497500", "160907.497500", "160909.497500", "160911.497500", "160913.497500", "160915.497500", "160917.497500", "160919.497500", "160921.497500", "160923.497500"],
      "ContentTime": ["155809.492000", "155809.495000", "155809.497000", "155809.499000", "155809.501000", "155809.503000", "155809.505000", "155809.506000", "155809.508000", "155809.511000", "155809.512000", "155809.514000", "155809.516000", "155809.518000", "155809.520000", "155809.522000", "155809.524000", "155809.527000", "155809.528000", "155809.530000", "155809.532000", "155809.535000", "155809.537000", "155809.539000", "155809.540000", "155809.543000", "155849.487000", "155849.489000", "155849.492000", "155849.493000", "155849.496000", "155849.498000", "155849.500000", "155849.502000", "155849.503000", "155849.505000", "155849.507000", "155849.509000", "155849.511000", "155849.513000", "155849.515000", "155849.517000", "155849.519000", "155849.521000", "155849.523000", "155849.525000", "155929.487000", "155929.489000", "155929.491000", "155929.493000", "155929.495000", "155929.497000", "155929.499000", "155929.501000", "155929.503000", "155929.505000", "155929.507000", "155929.509000", "155929.511000", "155929.513000", "155929.515000", "155929.517000", "155929.519000", "155929.521000", "155929.523000", "155929.525000", "160009.487000", "160009.489000", "160009.498000", "160009.500000", "160009.502000", "160009.504000", "160009.506000", "160009.508000", "160009.510000", "160009.512000", "160009.514000", "160009.516000", "160009.518000", "160009.520000", "160009.522000", "160009.524000", "160009.526000", "160009.528000", "160009.530000", "160009.532000", "160049.487000", "160049.489000", "160049.491000", "160049.493000", "160049.495000", "160049.497000", "160049.499000", "160049.501000", "160049.503000", "160049.505000", "160049.507000", "160049.509000", "160049.511000", "160049.513000", "160049.515000", "160049.517000", "160049.519000", "160049.521000", "160049.523000", "160049.525000", "160129.487000", "160129.489000", "160129.492000", "160129.493000", "160129.495000", "160129.497000", "160129.499000", "160129.501000", "160129.503000", "160129.505000", "160129.507000", "160129.509000", "160129.511000", "160129.513000", "160129.515000", "160129.517000", "160129.519000", "160129.521000", "160129.523000", "160129.525000", "160209.487000", "160209.489000", "160209.492000", "160209.494000", "160209.496000", "160209.497000", "160209.500000", "160209.501000", "160209.503000", "160209.505000", "160209.507000", "160209.509000", "160209.511000", "160209.513000", "160209.515000", "160209.517000", "160209.519000", "160209.521000", "160209.523000", "160209.525000", "160249.487000", "160249.489000", "160249.491000", "160249.493000", "160249.495000", "160249.497000", "160249.500000", "160249.501000", "160249.503000", "160249.505000", "160249.508000", "160249.510000", "160249.512000", "160249.513000", "160249.515000", "160249.517000", "160249.519000", "160249.521000", "160249.523000", "160249.525000", "160329.487000", "160329.489000", "160329.492000", "160329.493000", "160329.495000", "160329.497000", "160329.499000", "160329.501000", "160329.503000", "160329.505000", "160329.507000", "160329.509000", "160329.511000", "160329.513000", "160329.515000", "160329.517000", "160329.519000", "160329.521000", "160329.523000", "160329.525000", "160409.487000", "160409.489000", "160409.491000", "160409.493000", "160409.495000", "160409.507000", "160409.509000", "160409.511000", "160409.513000", "160409.515000", "160409.517000", "160409.519000", "160409.521000", "160409.523000", "160409.525000", "160409.527000", "160409.529000", "160409.531000", "160409.533000", "160409.535000", "160449.487000", "160449.489000", "160449.492000", "160449.493000", "160449.495000", "160449.497000", "160449.500000", "160449.502000", "160449.503000", "160449.505000", "160449.508000", "160449.509000", "160449.511000", "160449.513000", "160449.515000", "160449.517000", "160449.519000", "160449.521000", "160449.523000", "160449.525000", "160529.487000", "160529.489000", "160529.491000", "160529.493000", "160529.495000", "160529.497000", "160529.499000", "160529.501000", "160529.503000", "160529.505000", "160529.507000", "160529.509000", "160529.511000", "160529.513000", "160529.515000", "160529.517000", "160529.519000", "160529.521000", "160529.523000", "160529.525000", "160609.487000", "160609.489000", "160609.491000", "160609.493000", "160609.495000", "160609.497000", "160609.499000", "160609.501000", "160609.503000", "160609.505000", "160609.507000", "160609.509000", "160609.511000", "160609.513000", "160609.516000", "160609.518000", "160609.520000", "160609.522000", "160609.524000", "160609.526000", "160649.487000", "160649.489000", "160649.491000", "160649.493000", "160649.495000", "160649.497000", "160649.499000", "160649.501000", "160649.503000", "160649.505000", "160649.508000", "160649.510000", "160649.511000", "160649.513000", "160649.516000", "160649.518000", "160649.520000", "160649.521000", "160649.524000", "160649.526000", "160729.487000", "160729.489000", "160729.492000", "160729.493000", "160729.495000", "160729.497000", "160729.499000", "160729.501000", "160729.503000", "160729.505000", "160729.507000", "160729.510000", "160729.512000", "160729.513000", "160729.516000", "160729.518000", "160729.520000", "160729.521000", "160729.524000", "160729.526000", "160809.487000", "160809.489000", "160809.492000", "160809.494000", "160809.496000", "160809.498000", "160809.500000", "160809.502000", "160809.504000", "160809.505000", "160809.508000", "160809.510000", "160809.512000", "160809.514000", "160809.516000", "160809.518000", "160809.520000", "160809.522000", "160809.524000", "160809.526000", "160849.486000", "160849.488000", "160849.490000", "160849.492000", "160849.494000", "160849.496000", "160849.498000", "160849.500000", "160849.502000", "160849.504000", "160849.506000", "160849.508000", "160849.510000", "160849.512000", "160849.515000", "160849.517000", "160849.519000", "160849.521000", "160849.523000", "160849.525000", "160925.365000", "160925.368000", "160925.370000", "160925.372000", "160925.374000", "160925.376000", "160925.378000", "160925.380000", "160925.381000", "160925.383000", "160925.397000", "160925.401000", "160925.403000", "160925.406000", "160925.408000", "160925.410000", "160925.413000", "160925.415000"],
      "InstanceCreationTime": ["155809.492000", "155809.495000", "155809.497000", "155809.499000", "155809.501000", "155809.503000", "155809.505000", "155809.506000", "155809.508000", "155809.511000", "155809.512000", "155809.514000", "155809.516000", "155809.518000", "155809.520000", "155809.522000", "155809.524000", "155809.527000", "155809.528000", "155809.530000", "155809.532000", "155809.535000", "155809.537000", "155809.539000", "155809.540000", "155809.543000", "155849.487000", "155849.489000", "155849.492000", "155849.493000", "155849.496000", "155849.498000", "155849.500000", "155849.502000", "155849.503000", "155849.505000", "155849.507000", "155849.509000", "155849.511000", "155849.513000", "155849.515000", "155849.517000", "155849.519000", "155849.521000", "155849.523000", "155849.525000", "155929.487000", "155929.489000", "155929.491000", "155929.493000", "155929.495000", "155929.497000", "155929.499000", "155929.501000", "155929.503000", "155929.505000", "155929.507000", "155929.509000", "155929.511000", "155929.513000", "155929.515000", "155929.517000", "155929.519000", "155929.521000", "155929.523000", "155929.525000", "160009.487000", "160009.489000", "160009.498000", "160009.500000", "160009.502000", "160009.504000", "160009.506000", "160009.508000", "160009.510000", "160009.512000", "160009.514000", "160009.516000", "160009.518000", "160009.520000", "160009.522000", "160009.524000", "160009.526000", "160009.528000", "160009.530000", "160009.532000", "160049.487000", "160049.489000", "160049.491000", "160049.493000", "160049.495000", "160049.497000", "160049.499000", "160049.501000", "160049.503000", "160049.505000", "160049.507000", "160049.509000", "160049.511000", "160049.513000", "160049.515000", "160049.517000", "160049.519000", "160049.521000", "160049.523000", "160049.525000", "160129.487000", "160129.489000", "160129.492000", "160129.493000", "160129.495000", "160129.497000", "160129.499000", "160129.501000", "160129.503000", "160129.505000", "160129.507000", "160129.509000", "160129.511000", "160129.513000", "160129.515000", "160129.517000", "160129.519000", "160129.521000", "160129.523000", "160129.525000", "160209.487000", "160209.489000", "160209.492000", "160209.494000", "160209.496000", "160209.497000", "160209.500000", "160209.501000", "160209.503000", "160209.505000", "160209.507000", "160209.509000", "160209.511000", "160209.513000", "160209.515000", "160209.517000", "160209.519000", "160209.521000", "160209.523000", "160209.525000", "160249.487000", "160249.489000", "160249.491000", "160249.493000", "160249.495000", "160249.497000", "160249.500000", "160249.501000", "160249.503000", "160249.505000", "160249.508000", "160249.510000", "160249.512000", "160249.513000", "160249.515000", "160249.517000", "160249.519000", "160249.521000", "160249.523000", "160249.525000", "160329.487000", "160329.489000", "160329.492000", "160329.493000", "160329.495000", "160329.497000", "160329.499000", "160329.501000", "160329.503000", "160329.505000", "160329.507000", "160329.509000", "160329.511000", "160329.513000", "160329.515000", "160329.517000", "160329.519000", "160329.521000", "160329.523000", "160329.525000", "160409.487000", "160409.489000", "160409.491000", "160409.493000", "160409.495000", "160409.507000", "160409.509000", "160409.511000", "160409.513000", "160409.515000", "160409.517000", "160409.519000", "160409.521000", "160409.523000", "160409.525000", "160409.527000", "160409.529000", "160409.531000", "160409.533000", "160409.535000", "160449.487000", "160449.489000", "160449.492000", "160449.493000", "160449.495000", "160449.497000", "160449.500000", "160449.502000", "160449.503000", "160449.505000", "160449.508000", "160449.509000", "160449.511000", "160449.513000", "160449.515000", "160449.517000", "160449.519000", "160449.521000", "160449.523000", "160449.525000", "160529.487000", "160529.489000", "160529.491000", "160529.493000", "160529.495000", "160529.497000", "160529.499000", "160529.501000", "160529.503000", "160529.505000", "160529.507000", "160529.509000", "160529.511000", "160529.513000", "160529.515000", "160529.517000", "160529.519000", "160529.521000", "160529.523000", "160529.525000", "160609.487000", "160609.489000", "160609.491000", "160609.493000", "160609.495000", "160609.497000", "160609.499000", "160609.501000", "160609.503000", "160609.505000", "160609.507000", "160609.509000", "160609.511000", "160609.513000", "160609.516000", "160609.518000", "160609.520000", "160609.522000", "160609.524000", "160609.526000", "160649.487000", "160649.489000", "160649.491000", "160649.493000", "160649.495000", "160649.497000", "160649.499000", "160649.501000", "160649.503000", "160649.505000", "160649.508000", "160649.510000", "160649.511000", "160649.513000", "160649.516000", "160649.518000", "160649.520000", "160649.521000", "160649.524000", "160649.526000", "160729.487000", "160729.489000", "160729.492000", "160729.493000", "160729.495000", "160729.497000", "160729.499000", "160729.501000", "160729.503000", "160729.505000", "160729.507000", "160729.510000", "160729.512000", "160729.513000", "160729.516000", "160729.518000", "160729.520000", "160729.521000", "160729.524000", "160729.526000", "160809.487000", "160809.489000", "160809.492000", "160809.494000", "160809.496000", "160809.498000", "160809.500000", "160809.502000", "160809.504000", "160809.505000", "160809.508000", "160809.510000", "160809.512000", "160809.514000", "160809.516000", "160809.518000", "160809.520000", "160809.522000", "160809.524000", "160809.526000", "160849.486000", "160849.488000", "160849.490000", "160849.492000", "160849.494000", "160849.496000", "160849.498000", "160849.500000", "160849.502000", "160849.504000", "160849.506000", "160849.508000", "160849.510000", "160849.512000", "160849.515000", "160849.517000", "160849.519000", "160849.521000", "160849.523000", "160849.525000", "160925.365000", "160925.368000", "160925.370000", "160925.372000", "160925.374000", "160925.376000", "160925.378000", "160925.380000", "160925.381000", "160925.383000", "160925.397000", "160925.401000", "160925.403000", "160925.406000", "160925.408000", "160925.410000", "160925.413000", "160925.415000"],
      "InstanceNumber": [1, 2, 3, 4, 5, 6, 7, 8, 9, 10, 11, 12, 13, 14, 15, 16, 17, 18, 19, 20, 21, 22, 23, 24, 25, 26, 27, 28, 29, 30, 31, 32, 33, 34, 35, 36, 37, 38, 39, 40, 41, 42, 43, 44, 45, 46, 47, 48, 49, 50, 51, 52, 53, 54, 55, 56, 57, 58, 59, 60, 61, 62, 63, 64, 65, 66, 67, 68, 69, 70, 71, 72, 73, 74, 75, 76, 77, 78, 79, 80, 81, 82, 83, 84, 85, 86, 87, 88, 89, 90, 91, 92, 93, 94, 95, 96, 97, 98, 99, 100, 101, 102, 103, 104, 105, 106, 107, 108, 109, 110, 111, 112, 113, 114, 115, 116, 117, 118, 119, 120, 121, 122, 123, 124, 125, 126, 127, 128, 129, 130, 131, 132, 133, 134, 135, 136, 137, 138, 139, 140, 141, 142, 143, 144, 145, 146, 147, 148, 149, 150, 151, 152, 153, 154, 155, 156, 157, 158, 159, 160, 161, 162, 163, 164, 165, 166, 167, 168, 169, 170, 171, 172, 173, 174, 175, 176, 177, 178, 179, 180, 181, 182, 183, 184, 185, 186, 187, 188, 189, 190, 191, 192, 193, 194, 195, 196, 197, 198, 199, 200, 201, 202, 203, 204, 205, 206, 207, 208, 209, 210, 211, 212, 213, 214, 215, 216, 217, 218, 219, 220, 221, 222, 223, 224, 225, 226, 227, 228, 229, 230, 231, 232, 233, 234, 235, 236, 237, 238, 239, 240, 241, 242, 243, 244, 245, 246, 247, 248, 249, 250, 251, 252, 253, 254, 255, 256, 257, 258, 259, 260, 261, 262, 263, 264, 265, 266, 267, 268, 269, 270, 271, 272, 273, 274, 275, 276, 277, 278, 279, 280, 281, 282, 283, 284, 285, 286, 287, 288, 289, 290, 291, 292, 293, 294, 295, 296, 297, 298, 299, 300, 301, 302, 303, 304, 305, 306, 307, 308, 309, 310, 311, 312, 313, 314, 315, 316, 317, 318, 319, 320, 321, 322, 323, 324, 325, 326, 327, 328, 329, 330, 331, 332, 333, 334, 335, 336, 337, 338, 339, 340, 341, 342, 343, 344, 345, 346, 347, 348, 349, 350, 351, 352, 353, 354, 355, 356, 357, 358, 359, 360, 361, 362, 363, 364],
      "LargestImagePixelValue": [2987, 2897, 2865, 2820, 2831, 2846, 2859, 2863, 2852, 2833, 2827, 2823, 2831, 2826, 2815, 2830, 2831, 2848, 2849, 2827, 2838, 2851, 2852, 2859, 2828, 2847, 2825, 2821, 2836, 2820, 2823, 2824, 2804, 2788, 2814, 2823, 2823, 2815, 2805, 2823, 2845, 2835, 2806, 2831, 2851, 2844, 2821, 2832, 2827, 2809, 2829, 2833, 2816, 2813, 2808, 2807, 2815, 2826, 2807, 2785, 2809, 2795, 2750, 2736, 2755, 2795, 2817, 2787, 2773, 2787, 2758, 2802, 2815, 2815, 2790, 2806, 2817, 2805, 2808, 2799, 2787, 2799, 2798, 2804, 2811, 2782, 2796, 2773, 2790, 2807, 2799, 2760, 2714, 2740, 2763, 2787, 2782, 2765, 2781, 2786, 2776, 2767, 2788, 2783, 2783, 2769, 2768, 2766, 2761, 2762, 2761, 2764, 2755, 2752, 2762, 2751, 2749, 2775, 2777, 2765, 2682, 2707, 2743, 2708, 2714, 2683, 2636, 2648, 2653, 2707, 2733, 2733, 2751, 2749, 2730, 2755, 2751, 2763, 2761, 2732, 2731, 2726, 2739, 2702, 2727, 2718, 2719, 2722, 2706, 2746, 2793, 2775, 2726, 2659, 2702, 2709, 2691, 2705, 2719, 2723, 2724, 2735, 2733, 2728, 2743, 2746, 2722, 2742, 2755, 2740, 2738, 2743, 2745, 2755, 2753, 2753, 2770, 2767, 2721, 2761, 2762, 2753, 2750, 2723, 2742, 2776, 2793, 2772, 2732, 2741, 2725, 2761, 2738, 2720, 2745, 2762, 2766, 2752, 2766, 2769, 2777, 2752, 2730, 2716, 2736, 2746, 2761, 2761, 2775, 2781, 2761, 2742, 2714, 2713, 2747, 2764, 2764, 2737, 2723, 2727, 2725, 2735, 2743, 2753, 2739, 2729, 2741, 2729, 2726, 2701, 2729, 2750, 2733, 2717, 2724, 2724, 2737, 2723, 2702, 2730, 2790, 2771, 2733, 2671, 2684, 2722, 2749, 2744, 2722, 2725, 2732, 2752, 2748, 2743, 2743, 2709, 2725, 2736, 2745, 2741, 2745, 2730, 2728, 2708, 2720, 2717, 2736, 2712, 2696, 2725, 2743, 2718, 2673, 2639, 2665, 2698, 2699, 2676, 2652, 2663, 2648, 2673, 2659, 2662, 2664, 2647, 2674, 2681, 2683, 2662, 2672, 2665, 2640, 2650, 2638, 2625, 2648, 2657, 2645, 2654, 2687, 2601, 2623, 2627, 2641, 2652, 2648, 2644, 2631, 2637, 2627, 2630, 2622, 2629, 2619, 2595, 2589, 2612, 2603, 2579, 2601, 2590, 2592, 2602, 2625, 2593, 2590, 2592, 2586, 2594, 2605, 2617, 2642, 2618, 2626, 2642, 2650, 2640, 2643, 2627, 2633, 2659, 2658, 2676, 2662, 2681, 2681, 2702, 2707, 2694, 2692, 2707, 2715, 2706, 2700, 2691, 2693, 2666, 2676, 2686, 2700, 2653, 2652, 2640],
