{
  "AcquisitionMatrixPE": 64,
  "AcquisitionNumber": 1,
  "AcquisitionTime": "15:57:29.730000",
  "BandwidthPerPixelPhaseEncode": 25.202,
  "BaseResolution": 64,
  "BodyPartExamined": "BRAIN",
  "ConsistencyInfo": "N4_VD13C_LATEST_20121124",
  "ConversionSoftware": "dcm2niix",
  "ConversionSoftwareVersion": "v1.0.20201102",
  "DerivedVendorReportedEchoSpacing": 0.00061999,
  "DeviceSerialNumber": "45758",
  "DwellTime": 4.3e-06,
  "EchoTime": 0.03,
  "EchoTrainLength": 64,
  "EffectiveEchoSpacing": 0.00061999,
  "FlipAngle": 90,
  "ImageOrientationPatientDICOM": [0.997882, 0.0649542, 0.003466, -0.0645301, 0.995254, -0.0728384],
  "ImageType": [
    "ORIGINAL",
    "PRIMARY",
    "M",
    "ND",
    "MOSAIC"
],
  "ImagingFrequency": 123.2,
  "InPlanePhaseEncodingDirectionDICOM": "ROW",
  "InstitutionAddress": "Street StreetNo,City /652E4B/,District,KR,ZIP",
  "InstitutionName": "DGMIF",
  "InstitutionalDepartmentName": "Department",
  "MRAcquisitionType": "2D",
  "MagneticFieldStrength": 3,
  "Manufacturer": "Siemens",
  "ManufacturersModelName": "Skyra",
  "Modality": "MR",
  "PartialFourier": 1,
  "PatientPosition": "HFS",
  "PercentPhaseFOV": 100,
  "PercentSampling": 100,
  "PhaseEncodingDirection": "i",
  "PhaseEncodingSteps": 64,
  "PhaseResolution": 1,
  "PixelBandwidth": 1815,
  "ProcedureStepDescription": "DGMIF^DGIST_Jeon",
  "ProtocolName": "EPI_DGIST_2",
  "PulseSequenceDetails": "%SiemensSeq%\\ep2d_bold",
  "ReceiveCoilActiveElements": "HC1-6",
  "ReceiveCoilName": "HeadNeck_64",
  "ReconMatrixPE": 64,
  "RepetitionTime": 2,
  "SAR": 0.137438,
  "ScanOptions": "FS",
  "ScanningSequence": "EP",
  "SequenceName": "*epfid2d1_64",
  "SequenceVariant": "SK",
  "SeriesDescription": "EPI_DGIST_2",
  "SeriesNumber": 3,
  "ShimSetting": [-9775, -13638, -8062, 400, -418, -42, -295, -73],
  "SliceThickness": 4,
  "SliceTiming": [0.99, 0, 1.055, 0.065, 1.1225, 0.1325, 1.1875, 0.1975, 1.2525, 0.2625, 1.32, 0.33, 1.385, 0.395, 1.4525, 0.4625, 1.5175, 0.5275, 1.5825, 0.5925, 1.65, 0.66, 1.715, 0.725, 1.7825, 0.7925, 1.8475, 0.8575, 1.9125, 0.9225],
  "SoftwareVersions": "syngo MR D13C",
  "SpacingBetweenSlices": 4.8,
  "StationName": "AWP45758",
  "TaskName": "asrt",
  "TotalReadoutTime": 0.0390594,
  "TxRefAmp": 315.117,
  "dcmmeta_affine": [
    [-2.9936466217041016, -0.1935904622077942, 0.039267417043447495, 98.84180450439453],
    [-0.19486267864704132, 2.985761880874634, -0.34781011939048767, -110.55488586425781],
    [0.010398007929325104, 0.218515083193779, 4.7872209548950195, -62.67837905883789],
    [0.0, 0.0, 0.0, 1.0]
],
  "dcmmeta_reorient_transform": [
    [0.0, -1.0, 0.0, 63.0],
    [1.0, 0.0, 0.0, 0.0],
    [0.0, 0.0, 1.0, 0.0],
    [0.0, 0.0, 0.0, 1.0]
],
  "dcmmeta_shape": [64, 64, 30, 364],
  "dcmmeta_slice_dim": 2,
  "dcmmeta_version": 0.6,
  "global": {
    "const": {
      "AcquisitionMatrix": [0, 64, 64, 0],
      "AngioFlag": "N",
      "BitsAllocated": 16,
      "BitsStored": 12,
      "BodyPartExamined": "BRAIN",
      "Columns": 384,
      "EchoNumbers": 1,
      "EchoTime": 30.0,
      "EchoTrainLength": 64,
      "FlipAngle": 90.0,
      "HighBit": 11,
      "ImageOrientationPatient": [0.99788222519869, 0.06495422587309, 0.00346600255807, -0.0645301525138, 0.99525395391478, -0.0728383596297],
      "ImagePositionPatient": [-534.65459684311, -586.44803518452, -15.613196673694],
      "ImageType": [
        "ORIGINAL",
        "PRIMARY",
        "M",
        "ND",
        "MOSAIC"
],
      "ImagedNucleus": "1H",
      "ImagingFrequency": 123.200128,
      "InPlanePhaseEncodingDirection": "ROW",
      "MRAcquisitionType": "2D",
      "MagneticFieldStrength": 3.0,
      "Manufacturer": "SIEMENS",
      "ManufacturerModelName": "Skyra",
      "Modality": "MR",
      "NumberOfAverages": 1.0,
      "NumberOfPhaseEncodingSteps": 64,
      "PercentPhaseFieldOfView": 100.0,
      "PercentSampling": 100.0,
      "PerformedProcedureStepStartTime": "153526.452000",
      "PhotometricInterpretation": "MONOCHROME2",
      "PixelBandwidth": 1815.0,
      "PixelRepresentation": 0,
      "PixelSpacing": [3.0, 3.0],
      "ProtocolName": "EPI_DGIST_2",
      "RepetitionTime": 2000.0,
      "Rows": 384,
      "SAR": 0.13743770581411,
      "SamplesPerPixel": 1,
      "ScanOptions": "FS",
      "ScanningSequence": "EP",
      "SequenceName": "*epfid2d1_64",
      "SequenceVariant": "SK",
      "SeriesDescription": "EPI_DGIST_2",
      "SeriesNumber": 3,
      "SeriesTime": "155822.389000",
      "SliceLocation": -53.692059200742,
      "SliceThickness": 4.0,
      "SmallestImagePixelValue": 0,
      "SoftwareVersions": "syngo MR D13C",
      "SpacingBetweenSlices": 4.7999999216657,
      "SpecificCharacterSet": "ISO_IR 100",
      "StudyID": "1",
      "StudyTime": "153526.388000",
      "TimeOfLastCalibration": ["123723.000000", "123723.000000"],
      "TransmitCoilName": "Body",
      "VariableFlipAngleFlag": "N",
      "WindowCenterWidthExplanation": "Algo1",
      "dBdt": 0.0},
    "slices": {}
  },
  "time": {
    "samples": {
      "AcquisitionNumber": [1, 2, 3, 4, 5, 6, 7, 8, 9, 10, 11, 12, 13, 14, 15, 16, 17, 18, 19, 20, 21, 22, 23, 24, 25, 26, 27, 28, 29, 30, 31, 32, 33, 34, 35, 36, 37, 38, 39, 40, 41, 42, 43, 44, 45, 46, 47, 48, 49, 50, 51, 52, 53, 54, 55, 56, 57, 58, 59, 60, 61, 62, 63, 64, 65, 66, 67, 68, 69, 70, 71, 72, 73, 74, 75, 76, 77, 78, 79, 80, 81, 82, 83, 84, 85, 86, 87, 88, 89, 90, 91, 92, 93, 94, 95, 96, 97, 98, 99, 100, 101, 102, 103, 104, 105, 106, 107, 108, 109, 110, 111, 112, 113, 114, 115, 116, 117, 118, 119, 120, 121, 122, 123, 124, 125, 126, 127, 128, 129, 130, 131, 132, 133, 134, 135, 136, 137, 138, 139, 140, 141, 142, 143, 144, 145, 146, 147, 148, 149, 150, 151, 152, 153, 154, 155, 156, 157, 158, 159, 160, 161, 162, 163, 164, 165, 166, 167, 168, 169, 170, 171, 172, 173, 174, 175, 176, 177, 178, 179, 180, 181, 182, 183, 184, 185, 186, 187, 188, 189, 190, 191, 192, 193, 194, 195, 196, 197, 198, 199, 200, 201, 202, 203, 204, 205, 206, 207, 208, 209, 210, 211, 212, 213, 214, 215, 216, 217, 218, 219, 220, 221, 222, 223, 224, 225, 226, 227, 228, 229, 230, 231, 232, 233, 234, 235, 236, 237, 238, 239, 240, 241, 242, 243, 244, 245, 246, 247, 248, 249, 250, 251, 252, 253, 254, 255, 256, 257, 258, 259, 260, 261, 262, 263, 264, 265, 266, 267, 268, 269, 270, 271, 272, 273, 274, 275, 276, 277, 278, 279, 280, 281, 282, 283, 284, 285, 286, 287, 288, 289, 290, 291, 292, 293, 294, 295, 296, 297, 298, 299, 300, 301, 302, 303, 304, 305, 306, 307, 308, 309, 310, 311, 312, 313, 314, 315, 316, 317, 318, 319, 320, 321, 322, 323, 324, 325, 326, 327, 328, 329, 330, 331, 332, 333, 334, 335, 336, 337, 338, 339, 340, 341, 342, 343, 344, 345, 346, 347, 348, 349, 350, 351, 352, 353, 354, 355, 356, 357, 358, 359, 360, 361, 362, 363, 364],
      "AcquisitionTime": ["155729.730000", "155731.730000", "155733.730000", "155735.730000", "155737.730000", "155739.730000", "155741.730000", "155743.730000", "155745.730000", "155747.730000", "155749.730000", "155751.730000", "155753.730000", "155755.730000", "155757.730000", "155759.730000", "155801.730000", "155803.730000", "155805.730000", "155807.730000", "155809.730000", "155811.730000", "155813.730000", "155815.730000", "155817.730000", "155819.730000", "155821.730000", "155823.730000", "155825.730000", "155827.730000", "155829.730000", "155831.730000", "155833.730000", "155835.730000", "155837.730000", "155839.730000", "155841.730000", "155843.730000", "155845.730000", "155847.730000", "155849.730000", "155851.730000", "155853.730000", "155855.730000", "155857.730000", "155859.730000", "155901.730000", "155903.730000", "155905.730000", "155907.730000", "155909.730000", "155911.730000", "155913.730000", "155915.730000", "155917.730000", "155919.730000", "155921.730000", "155923.730000", "155925.730000", "155927.730000", "155929.730000", "155931.730000", "155933.730000", "155935.730000", "155937.730000", "155939.730000", "155941.730000", "155943.730000", "155945.730000", "155947.730000", "155949.730000", "155951.730000", "155953.730000", "155955.730000", "155957.730000", "155959.730000", "160001.730000", "160003.730000", "160005.730000", "160007.730000", "160009.730000", "160011.730000", "160013.730000", "160015.730000", "160017.730000", "160019.730000", "160021.730000", "160023.730000", "160025.730000", "160027.730000", "160029.730000", "160031.730000", "160033.730000", "160035.730000", "160037.730000", "160039.730000", "160041.730000", "160043.730000", "160045.730000", "160047.730000", "160049.730000", "160051.730000", "160053.730000", "160055.730000", "160057.730000", "160059.730000", "160101.730000", "160103.730000", "160105.730000", "160107.730000", "160109.730000", "160111.730000", "160113.730000", "160115.730000", "160117.730000", "160119.730000", "160121.730000", "160123.730000", "160125.730000", "160127.730000", "160129.730000", "160131.730000", "160133.730000", "160135.730000", "160137.730000", "160139.730000", "160141.730000", "160143.730000", "160145.730000", "160147.730000", "160149.730000", "160151.730000", "160153.730000", "160155.730000", "160157.730000", "160159.730000", "160201.730000", "160203.730000", "160205.730000", "160207.730000", "160209.730000", "160211.730000", "160213.730000", "160215.730000", "160217.730000", "160219.730000", "160221.730000", "160223.730000", "160225.730000", "160227.730000", "160229.730000", "160231.730000", "160233.730000", "160235.730000", "160237.730000", "160239.730000", "160241.730000", "160243.730000", "160245.730000", "160247.730000", "160249.730000", "160251.730000", "160253.730000", "160255.730000", "160257.730000", "160259.730000", "160301.730000", "160303.730000", "160305.730000", "160307.730000", "160309.730000", "160311.730000", "160313.730000", "160315.730000", "160317.730000", "160319.730000", "160321.730000", "160323.730000", "160325.730000", "160327.730000", "160329.730000", "160331.730000", "160333.730000", "160335.730000", "160337.730000", "160339.730000", "160341.732500", "160343.732500", "160345.732500", "160347.732500", "160349.732500", "160351.732500", "160353.732500", "160355.732500", "160357.732500", "160359.732500", "160401.732500", "160403.732500", "160405.732500", "160407.732500", "160409.732500", "160411.732500", "160413.732500", "160415.732500", "160417.732500", "160419.732500", "160421.732500", "160423.732500", "160425.732500", "160427.732500", "160429.732500", "160431.732500", "160433.732500", "160435.732500", "160437.732500", "160439.732500", "160441.732500", "160443.732500", "160445.732500", "160447.732500", "160449.732500", "160451.732500", "160453.732500", "160455.732500", "160457.732500", "160459.732500", "160501.732500", "160503.732500", "160505.732500", "160507.732500", "160509.732500", "160511.732500", "160513.732500", "160515.732500", "160517.732500", "160519.732500", "160521.732500", "160523.732500", "160525.732500", "160527.732500", "160529.732500", "160531.732500", "160533.732500", "160535.732500", "160537.732500", "160539.732500", "160541.732500", "160543.732500", "160545.732500", "160547.732500", "160549.732500", "160551.732500", "160553.732500", "160555.732500", "160557.732500", "160559.732500", "160601.732500", "160603.732500", "160605.732500", "160607.732500", "160609.732500", "160611.732500", "160613.732500", "160615.732500", "160617.732500", "160619.732500", "160621.732500", "160623.732500", "160625.732500", "160627.732500", "160629.732500", "160631.732500", "160633.732500", "160635.732500", "160637.732500", "160639.732500", "160641.732500", "160643.732500", "160645.732500", "160647.732500", "160649.732500", "160651.732500", "160653.732500", "160655.732500", "160657.732500", "160659.732500", "160701.732500", "160703.732500", "160705.732500", "160707.732500", "160709.732500", "160711.732500", "160713.732500", "160715.732500", "160717.732500", "160719.732500", "160721.732500", "160723.732500", "160725.732500", "160727.732500", "160729.732500", "160731.732500", "160733.732500", "160735.732500", "160737.732500", "160739.732500", "160741.732500", "160743.732500", "160745.732500", "160747.732500", "160749.732500", "160751.732500", "160753.732500", "160755.732500", "160757.732500", "160759.732500", "160801.732500", "160803.732500", "160805.732500", "160807.732500", "160809.732500", "160811.732500", "160813.732500", "160815.732500", "160817.732500", "160819.732500", "160821.732500", "160823.732500", "160825.732500", "160827.732500", "160829.732500", "160831.732500", "160833.732500", "160835.732500", "160837.732500", "160839.732500", "160841.732500", "160843.732500", "160845.732500", "160847.732500", "160849.732500", "160851.732500", "160853.732500", "160855.732500", "160857.732500", "160859.732500", "160901.732500", "160903.732500", "160905.732500", "160907.732500", "160909.732500", "160911.732500", "160913.732500", "160915.732500", "160917.732500", "160919.732500", "160921.732500", "160923.732500", "160925.732500", "160927.732500", "160929.732500", "160931.732500", "160933.732500", "160935.732500"],
      "ContentTime": ["155822.392000", "155822.395000", "155822.397000", "155822.398000", "155822.400000", "155822.402000", "155822.404000", "155822.406000", "155822.408000", "155822.410000", "155822.412000", "155822.414000", "155822.416000", "155822.418000", "155822.420000", "155822.422000", "155822.424000", "155822.426000", "155822.428000", "155822.429000", "155822.431000", "155822.441000", "155822.443000", "155822.445000", "155822.453000", "155822.455000", "155902.387000", "155902.389000", "155902.391000", "155902.393000", "155902.395000", "155902.397000", "155902.399000", "155902.401000", "155902.403000", "155902.405000", "155902.407000", "155902.409000", "155902.411000", "155902.413000", "155902.419000", "155902.421000", "155902.423000", "155902.425000", "155902.427000", "155902.429000", "155942.386000", "155942.389000", "155942.390000", "155942.392000", "155942.394000", "155942.397000", "155942.398000", "155942.400000", "155942.402000", "155942.404000", "155942.406000", "155942.408000", "155942.410000", "155942.412000", "155942.414000", "155942.416000", "155942.418000", "155942.420000", "155942.422000", "155942.424000", "160002.386000", "160002.388000", "160002.390000", "160002.392000", "160002.394000", "160002.396000", "160002.398000", "160002.400000", "160002.402000", "160002.404000", "160042.387000", "160042.389000", "160042.391000", "160042.393000", "160042.395000", "160042.397000", "160042.399000", "160042.401000", "160042.403000", "160042.411000", "160042.413000", "160042.415000", "160042.417000", "160042.419000", "160042.421000", "160042.423000", "160042.425000", "160042.427000", "160042.429000", "160042.431000", "160122.387000", "160122.389000", "160122.391000", "160122.393000", "160122.395000", "160122.397000", "160122.399000", "160122.401000", "160122.403000", "160122.405000", "160122.407000", "160122.409000", "160122.411000", "160122.413000", "160122.415000", "160122.417000", "160122.419000", "160122.421000", "160122.422000", "160122.424000", "160202.386000", "160202.388000", "160202.390000", "160202.392000", "160202.394000", "160202.396000", "160202.398000", "160202.400000", "160202.402000", "160202.404000", "160202.406000", "160202.423000", "160202.425000", "160202.427000", "160202.429000", "160202.431000", "160202.433000", "160202.435000", "160202.437000", "160202.439000", "160242.387000", "160242.389000", "160242.391000", "160242.393000", "160242.395000", "160242.397000", "160242.399000", "160242.401000", "160242.403000", "160242.405000", "160242.407000", "160242.409000", "160242.411000", "160242.413000", "160242.415000", "160242.417000", "160242.419000", "160242.421000", "160242.423000", "160242.425000", "160322.387000", "160322.389000", "160322.391000", "160322.393000", "160322.395000", "160322.397000", "160322.399000", "160322.401000", "160322.403000", "160322.405000", "160322.407000", "160322.409000", "160322.411000", "160322.413000", "160322.415000", "160322.417000", "160322.419000", "160322.421000", "160322.423000", "160322.425000", "160402.387000", "160402.389000", "160402.391000", "160402.393000", "160402.395000", "160402.397000", "160402.399000", "160402.401000", "160402.403000", "160402.405000", "160402.407000", "160402.409000", "160402.411000", "160402.413000", "160402.415000", "160402.417000", "160402.419000", "160402.421000", "160402.423000", "160402.424000", "160442.386000", "160442.388000", "160442.390000", "160442.392000", "160442.394000", "160442.396000", "160442.398000", "160442.400000", "160442.402000", "160442.404000", "160442.406000", "160442.408000", "160442.410000", "160442.412000", "160442.414000", "160442.416000", "160442.418000", "160442.420000", "160442.422000", "160442.424000", "160522.387000", "160522.389000", "160522.391000", "160522.393000", "160522.395000", "160522.397000", "160522.399000", "160522.401000", "160522.403000", "160522.405000", "160522.407000", "160522.409000", "160522.411000", "160522.413000", "160522.415000", "160522.417000", "160522.419000", "160522.421000", "160522.423000", "160522.425000", "160602.387000", "160602.389000", "160602.391000", "160602.393000", "160602.395000", "160602.397000", "160602.399000", "160602.401000", "160602.403000", "160602.405000", "160602.407000", "160602.409000", "160602.411000", "160602.413000", "160602.415000", "160602.417000", "160602.419000", "160602.421000", "160602.423000", "160602.425000", "160642.386000", "160642.388000", "160642.390000", "160642.392000", "160642.394000", "160642.396000", "160642.398000", "160642.400000", "160642.402000", "160642.404000", "160642.406000", "160642.408000", "160642.410000", "160642.412000", "160642.414000", "160642.419000", "160642.421000", "160642.423000", "160642.425000", "160642.427000", "160722.387000", "160722.389000", "160722.391000", "160722.393000", "160722.395000", "160722.397000", "160722.399000", "160722.401000", "160722.403000", "160722.405000", "160722.407000", "160722.409000", "160722.411000", "160722.413000", "160722.415000", "160722.417000", "160722.419000", "160722.421000", "160722.423000", "160722.425000", "160802.387000", "160802.389000", "160802.391000", "160802.393000", "160802.395000", "160802.397000", "160802.399000", "160802.401000", "160802.403000", "160802.405000", "160802.407000", "160802.409000", "160802.411000", "160802.413000", "160802.415000", "160802.417000", "160802.419000", "160802.421000", "160802.423000", "160802.425000", "160842.387000", "160842.389000", "160842.391000", "160842.393000", "160842.395000", "160842.397000", "160842.399000", "160842.401000", "160842.403000", "160842.405000", "160842.407000", "160842.409000", "160842.411000", "160842.413000", "160842.415000", "160842.417000", "160842.419000", "160842.421000", "160842.422000", "160842.424000", "160922.386000", "160922.388000", "160922.390000", "160922.392000", "160922.394000", "160922.401000", "160922.403000", "160922.405000", "160922.407000", "160922.409000", "160922.411000", "160922.413000", "160922.415000", "160922.417000", "160922.418000", "160922.420000", "160922.422000", "160922.424000", "160922.426000", "160922.428000", "160937.481000", "160937.483000", "160937.485000", "160937.487000", "160937.489000", "160937.491000", "160937.493000", "160937.495000"],
      "InstanceCreationTime": ["155822.392000", "155822.395000", "155822.397000", "155822.398000", "155822.400000", "155822.402000", "155822.404000", "155822.406000", "155822.408000", "155822.410000", "155822.412000", "155822.414000", "155822.416000", "155822.418000", "155822.420000", "155822.422000", "155822.424000", "155822.426000", "155822.428000", "155822.429000", "155822.431000", "155822.441000", "155822.443000", "155822.445000", "155822.453000", "155822.455000", "155902.387000", "155902.389000", "155902.391000", "155902.393000", "155902.395000", "155902.397000", "155902.399000", "155902.401000", "155902.403000", "155902.405000", "155902.407000", "155902.409000", "155902.411000", "155902.413000", "155902.419000", "155902.421000", "155902.423000", "155902.425000", "155902.427000", "155902.429000", "155942.386000", "155942.389000", "155942.390000", "155942.392000", "155942.394000", "155942.397000", "155942.398000", "155942.400000", "155942.402000", "155942.404000", "155942.406000", "155942.408000", "155942.410000", "155942.412000", "155942.414000", "155942.416000", "155942.418000", "155942.420000", "155942.422000", "155942.424000", "160002.386000", "160002.388000", "160002.390000", "160002.392000", "160002.394000", "160002.396000", "160002.398000", "160002.400000", "160002.402000", "160002.404000", "160042.387000", "160042.389000", "160042.391000", "160042.393000", "160042.395000", "160042.397000", "160042.399000", "160042.401000", "160042.403000", "160042.411000", "160042.413000", "160042.415000", "160042.417000", "160042.419000", "160042.421000", "160042.423000", "160042.425000", "160042.427000", "160042.429000", "160042.431000", "160122.387000", "160122.389000", "160122.391000", "160122.393000", "160122.395000", "160122.397000", "160122.399000", "160122.401000", "160122.403000", "160122.405000", "160122.407000", "160122.409000", "160122.411000", "160122.413000", "160122.415000", "160122.417000", "160122.419000", "160122.421000", "160122.422000", "160122.424000", "160202.386000", "160202.388000", "160202.390000", "160202.392000", "160202.394000", "160202.396000", "160202.398000", "160202.400000", "160202.402000", "160202.404000", "160202.406000", "160202.423000", "160202.425000", "160202.427000", "160202.429000", "160202.431000", "160202.433000", "160202.435000", "160202.437000", "160202.439000", "160242.387000", "160242.389000", "160242.391000", "160242.393000", "160242.395000", "160242.397000", "160242.399000", "160242.401000", "160242.403000", "160242.405000", "160242.407000", "160242.409000", "160242.411000", "160242.413000", "160242.415000", "160242.417000", "160242.419000", "160242.421000", "160242.423000", "160242.425000", "160322.387000", "160322.389000", "160322.391000", "160322.393000", "160322.395000", "160322.397000", "160322.399000", "160322.401000", "160322.403000", "160322.405000", "160322.407000", "160322.409000", "160322.411000", "160322.413000", "160322.415000", "160322.417000", "160322.419000", "160322.421000", "160322.423000", "160322.425000", "160402.387000", "160402.389000", "160402.391000", "160402.393000", "160402.395000", "160402.397000", "160402.399000", "160402.401000", "160402.403000", "160402.405000", "160402.407000", "160402.409000", "160402.411000", "160402.413000", "160402.415000", "160402.417000", "160402.419000", "160402.421000", "160402.423000", "160402.424000", "160442.386000", "160442.388000", "160442.390000", "160442.392000", "160442.394000", "160442.396000", "160442.398000", "160442.400000", "160442.402000", "160442.404000", "160442.406000", "160442.408000", "160442.410000", "160442.412000", "160442.414000", "160442.416000", "160442.418000", "160442.420000", "160442.422000", "160442.424000", "160522.387000", "160522.389000", "160522.391000", "160522.393000", "160522.395000", "160522.397000", "160522.399000", "160522.401000", "160522.403000", "160522.405000", "160522.407000", "160522.409000", "160522.411000", "160522.413000", "160522.415000", "160522.417000", "160522.419000", "160522.421000", "160522.423000", "160522.425000", "160602.387000", "160602.389000", "160602.391000", "160602.393000", "160602.395000", "160602.397000", "160602.399000", "160602.401000", "160602.403000", "160602.405000", "160602.407000", "160602.409000", "160602.411000", "160602.413000", "160602.415000", "160602.417000", "160602.419000", "160602.421000", "160602.423000", "160602.425000", "160642.386000", "160642.388000", "160642.390000", "160642.392000", "160642.394000", "160642.396000", "160642.398000", "160642.400000", "160642.402000", "160642.404000", "160642.406000", "160642.408000", "160642.410000", "160642.412000", "160642.414000", "160642.419000", "160642.421000", "160642.423000", "160642.425000", "160642.427000", "160722.387000", "160722.389000", "160722.391000", "160722.393000", "160722.395000", "160722.397000", "160722.399000", "160722.401000", "160722.403000", "160722.405000", "160722.407000", "160722.409000", "160722.411000", "160722.413000", "160722.415000", "160722.417000", "160722.419000", "160722.421000", "160722.423000", "160722.425000", "160802.387000", "160802.389000", "160802.391000", "160802.393000", "160802.395000", "160802.397000", "160802.399000", "160802.401000", "160802.403000", "160802.405000", "160802.407000", "160802.409000", "160802.411000", "160802.413000", "160802.415000", "160802.417000", "160802.419000", "160802.421000", "160802.423000", "160802.425000", "160842.387000", "160842.389000", "160842.391000", "160842.393000", "160842.395000", "160842.397000", "160842.399000", "160842.401000", "160842.403000", "160842.405000", "160842.407000", "160842.409000", "160842.411000", "160842.413000", "160842.415000", "160842.417000", "160842.419000", "160842.421000", "160842.422000", "160842.424000", "160922.386000", "160922.388000", "160922.390000", "160922.392000", "160922.394000", "160922.401000", "160922.403000", "160922.405000", "160922.407000", "160922.409000", "160922.411000", "160922.413000", "160922.415000", "160922.417000", "160922.418000", "160922.420000", "160922.422000", "160922.424000", "160922.426000", "160922.428000", "160937.481000", "160937.483000", "160937.485000", "160937.487000", "160937.489000", "160937.491000", "160937.493000", "160937.495000"],
      "InstanceNumber": [1, 2, 3, 4, 5, 6, 7, 8, 9, 10, 11, 12, 13, 14, 15, 16, 17, 18, 19, 20, 21, 22, 23, 24, 25, 26, 27, 28, 29, 30, 31, 32, 33, 34, 35, 36, 37, 38, 39, 40, 41, 42, 43, 44, 45, 46, 47, 48, 49, 50, 51, 52, 53, 54, 55, 56, 57, 58, 59, 60, 61, 62, 63, 64, 65, 66, 67, 68, 69, 70, 71, 72, 73, 74, 75, 76, 77, 78, 79, 80, 81, 82, 83, 84, 85, 86, 87, 88, 89, 90, 91, 92, 93, 94, 95, 96, 97, 98, 99, 100, 101, 102, 103, 104, 105, 106, 107, 108, 109, 110, 111, 112, 113, 114, 115, 116, 117, 118, 119, 120, 121, 122, 123, 124, 125, 126, 127, 128, 129, 130, 131, 132, 133, 134, 135, 136, 137, 138, 139, 140, 141, 142, 143, 144, 145, 146, 147, 148, 149, 150, 151, 152, 153, 154, 155, 156, 157, 158, 159, 160, 161, 162, 163, 164, 165, 166, 167, 168, 169, 170, 171, 172, 173, 174, 175, 176, 177, 178, 179, 180, 181, 182, 183, 184, 185, 186, 187, 188, 189, 190, 191, 192, 193, 194, 195, 196, 197, 198, 199, 200, 201, 202, 203, 204, 205, 206, 207, 208, 209, 210, 211, 212, 213, 214, 215, 216, 217, 218, 219, 220, 221, 222, 223, 224, 225, 226, 227, 228, 229, 230, 231, 232, 233, 234, 235, 236, 237, 238, 239, 240, 241, 242, 243, 244, 245, 246, 247, 248, 249, 250, 251, 252, 253, 254, 255, 256, 257, 258, 259, 260, 261, 262, 263, 264, 265, 266, 267, 268, 269, 270, 271, 272, 273, 274, 275, 276, 277, 278, 279, 280, 281, 282, 283, 284, 285, 286, 287, 288, 289, 290, 291, 292, 293, 294, 295, 296, 297, 298, 299, 300, 301, 302, 303, 304, 305, 306, 307, 308, 309, 310, 311, 312, 313, 314, 315, 316, 317, 318, 319, 320, 321, 322, 323, 324, 325, 326, 327, 328, 329, 330, 331, 332, 333, 334, 335, 336, 337, 338, 339, 340, 341, 342, 343, 344, 345, 346, 347, 348, 349, 350, 351, 352, 353, 354, 355, 356, 357, 358, 359, 360, 361, 362, 363, 364],
      "LargestImagePixelValue": [2884, 2746, 2728, 2700, 2691, 2699, 2701, 2690, 2670, 2690, 2675, 2669, 2684, 2670, 2685, 2691, 2669, 2653, 2667, 2662, 2631, 2615, 2622, 2588, 2624, 2626, 2633, 2626, 2589, 2594, 2604, 2631, 2639, 2665, 2601, 2589, 2586, 2606, 2608, 2629, 2618, 2618, 2590, 2600, 2597, 2651, 2649, 2685, 2640, 2649, 2611, 2626, 2648, 2657, 2651, 2632, 2618, 2635, 2641, 2746, 2812, 2679, 2695, 2751, 2698, 2706, 2738, 2716, 2725, 2750, 2750, 2737, 2760, 2719, 2678, 2698, 2694, 2680, 2691, 2689, 2655, 2687, 2661, 2657, 2662, 2660, 2654, 2640, 2649, 2712, 2706, 2680, 2697, 2663, 2654, 2658, 2669, 2652, 2658, 2658, 2696, 2670, 2670, 2658, 2654, 2651, 2608, 2618, 2645, 2639, 2648, 2611, 2616, 2627, 2623, 2614, 2627, 2665, 2682, 2696, 2778, 2769, 2742, 2736, 2697, 2664, 2656, 2660, 2677, 2683, 2695, 2689, 2707, 2662, 2629, 2645, 2663, 2711, 2678, 2689, 2658, 2642, 2656, 2639, 2655, 2622, 2654, 2667, 2610, 2670, 2761, 3003, 2557, 2607, 2638, 2661, 2672, 2665, 2669, 2708, 2672, 2685, 2716, 2682, 2658, 2704, 2714, 2699, 2703, 2719, 2720, 2709, 2720, 2699, 2724, 2758, 2725, 2706, 2756, 2750, 2722, 2723, 2714, 2711, 2719, 2717, 2739, 2733, 2704, 2737, 2742, 2732, 2743, 2733, 3015, 2854, 2715, 2694, 2693, 2737, 2708, 2728, 2755, 2737, 2737, 2760, 2723, 2715, 2735, 2759, 3161, 2746, 2925, 2659, 2703, 2599, 2579, 2623, 2624, 2652, 2658, 2696, 2673, 2671, 2705, 2669, 2650, 2684, 2681, 2648, 2697, 2697, 2720, 2701, 2728, 2783, 2666, 2682, 2646, 2746, 2941, 2822, 2793, 2797, 2813, 2784, 2711, 2801, 2770, 2730, 2720, 2792, 2770, 2764, 2725, 2730, 2743, 2737, 2737, 2742, 2742, 2749, 2779, 2752, 2738, 2698, 2720, 2766, 2751, 2783, 3078, 2872, 2929, 2828, 2792, 2810, 2766, 2822, 2846, 2809, 2845, 2822, 2834, 2859, 2823, 2806, 2811, 2728, 2781, 2827, 2810, 2787, 2771, 2823, 2819, 2805, 2860, 2833, 2820, 2958, 3004, 2909, 2860, 2929, 2857, 2837, 2824, 2854, 2911, 2832, 2811, 2888, 2861, 2871, 2890, 2914, 2898, 2903, 2880, 2853, 2850, 2847, 2880, 2935, 2784, 2781, 2832, 2829, 2959, 2928, 3015, 2854, 2859, 2844, 2853, 2879, 2875, 2887, 2894, 2902, 2892, 2894, 2912, 2913, 2897, 2906, 2926, 2913, 2909, 2922, 2915, 2936, 2909, 2889, 2883, 2898, 2900, 2908, 2897, 2900, 3031, 2905, 2897, 2911],
