{
  "AcquisitionMatrixPE": 64,
  "AcquisitionNumber": 1,
  "AcquisitionTime": "15:38:43.875000",
  "BandwidthPerPixelPhaseEncode": 25.202,
  "BaseResolution": 64,
  "BodyPartExamined": "BRAIN",
  "ConsistencyInfo": "N4_VD13C_LATEST_20121124",
  "ConversionSoftware": "dcm2niix",
  "ConversionSoftwareVersion": "v1.0.20201102",
  "DerivedVendorReportedEchoSpacing": 0.00061999,
  "DeviceSerialNumber": "45758",
  "DwellTime": 4.3e-06,
  "EchoTime": 0.03,
  "EchoTrainLength": 64,
  "EffectiveEchoSpacing": 0.00061999,
  "FlipAngle": 90,
  "ImageOrientationPatientDICOM": [0.997882, 0.0649542, 0.003466, -0.0645301, 0.995254, -0.0728384],
  "ImageType": [
    "ORIGINAL",
    "PRIMARY",
    "M",
    "ND",
    "MOSAIC"
],
  "ImagingFrequency": 123.2,
  "InPlanePhaseEncodingDirectionDICOM": "ROW",
  "InstitutionAddress": "Street StreetNo,City /652E4B/,District,KR,ZIP",
  "InstitutionName": "DGMIF",
  "InstitutionalDepartmentName": "Department",
  "MRAcquisitionType": "2D",
  "MagneticFieldStrength": 3,
  "Manufacturer": "Siemens",
  "ManufacturersModelName": "Skyra",
  "Modality": "MR",
  "PartialFourier": 1,
  "PatientPosition": "HFS",
  "PercentPhaseFOV": 100,
  "PercentSampling": 100,
  "PhaseEncodingDirection": "i",
  "PhaseEncodingSteps": 64,
  "PhaseResolution": 1,
  "PixelBandwidth": 1815,
  "ProcedureStepDescription": "DGMIF^DGIST_Jeon",
  "ProtocolName": "EPI_DGIST_1",
  "PulseSequenceDetails": "%SiemensSeq%\\ep2d_bold",
  "ReceiveCoilActiveElements": "HC1-6",
  "ReceiveCoilName": "HeadNeck_64",
  "ReconMatrixPE": 64,
  "RepetitionTime": 2,
  "SAR": 0.137438,
  "ScanOptions": "FS",
  "ScanningSequence": "EP",
  "SequenceName": "*epfid2d1_64",
  "SequenceVariant": "SK",
  "SeriesDescription": "EPI_DGIST_1",
  "SeriesNumber": 2,
  "ShimSetting": [-9775, -13638, -8062, 400, -418, -42, -295, -73],
  "SliceThickness": 4,
  "SliceTiming": [0.99, 0, 1.055, 0.065, 1.1225, 0.1325, 1.1875, 0.1975, 1.255, 0.265, 1.32, 0.33, 1.385, 0.395, 1.4525, 0.4625, 1.5175, 0.5275, 1.585, 0.595, 1.65, 0.66, 1.715, 0.725, 1.7825, 0.7925, 1.8475, 0.8575, 1.915, 0.925],
  "SoftwareVersions": "syngo MR D13C",
  "SpacingBetweenSlices": 4.8,
  "StationName": "AWP45758",
  "TaskName": "asrt",
  "TotalReadoutTime": 0.0390594,
  "TxRefAmp": 315.117,
  "dcmmeta_affine": [
    [-2.9936466217041016, -0.1935904622077942, 0.039267417043447495, 98.84180450439453],
    [-0.19486267864704132, 2.985761880874634, -0.34781011939048767, -110.55488586425781],
    [0.010398007929325104, 0.218515083193779, 4.7872209548950195, -62.67837905883789],
    [0.0, 0.0, 0.0, 1.0]
],
  "dcmmeta_reorient_transform": [
    [0.0, -1.0, 0.0, 63.0],
    [1.0, 0.0, 0.0, 0.0],
    [0.0, 0.0, 1.0, 0.0],
    [0.0, 0.0, 0.0, 1.0]
],
  "dcmmeta_shape": [64, 64, 30, 514],
  "dcmmeta_slice_dim": 2,
  "dcmmeta_version": 0.6,
  "global": {
    "const": {
      "AcquisitionMatrix": [0, 64, 64, 0],
      "AngioFlag": "N",
      "BitsAllocated": 16,
      "BitsStored": 12,
      "BodyPartExamined": "BRAIN",
      "Columns": 384,
      "EchoNumbers": 1,
      "EchoTime": 30.0,
      "EchoTrainLength": 64,
      "FlipAngle": 90.0,
      "HighBit": 11,
      "ImageOrientationPatient": [0.99788222519869, 0.06495422587309, 0.00346600255807, -0.0645301525138, 0.99525395391478, -0.0728383596297],
      "ImagePositionPatient": [-534.65459684311, -586.44803518452, -15.613196673694],
      "ImageType": [
        "ORIGINAL",
        "PRIMARY",
        "M",
        "ND",
        "MOSAIC"
],
      "ImagedNucleus": "1H",
      "ImagingFrequency": 123.200087,
      "InPlanePhaseEncodingDirection": "ROW",
      "MRAcquisitionType": "2D",
      "MagneticFieldStrength": 3.0,
      "Manufacturer": "SIEMENS",
      "ManufacturerModelName": "Skyra",
      "Modality": "MR",
      "NumberOfAverages": 1.0,
      "NumberOfPhaseEncodingSteps": 64,
      "PercentPhaseFieldOfView": 100.0,
      "PercentSampling": 100.0,
      "PerformedProcedureStepStartTime": "153526.452000",
      "PhotometricInterpretation": "MONOCHROME2",
      "PixelBandwidth": 1815.0,
      "PixelRepresentation": 0,
      "PixelSpacing": [3.0, 3.0],
      "ProtocolName": "EPI_DGIST_1",
      "RepetitionTime": 2000.0,
      "Rows": 384,
      "SAR": 0.13743770581411,
      "SamplesPerPixel": 1,
      "ScanOptions": "FS",
      "ScanningSequence": "EP",
      "SequenceName": "*epfid2d1_64",
      "SequenceVariant": "SK",
      "SeriesDescription": "EPI_DGIST_1",
      "SeriesNumber": 2,
      "SeriesTime": "153927.260000",
      "SliceLocation": -53.692059200742,
      "SliceThickness": 4.0,
      "SmallestImagePixelValue": 0,
      "SoftwareVersions": "syngo MR D13C",
      "SpacingBetweenSlices": 4.7999999216657,
      "SpecificCharacterSet": "ISO_IR 100",
      "StudyID": "1",
      "StudyTime": "153526.388000",
      "TimeOfLastCalibration": ["123723.000000", "123723.000000"],
      "TransmitCoilName": "Body",
      "VariableFlipAngleFlag": "N",
      "WindowCenterWidthExplanation": "Algo1",
      "dBdt": 0.0},
    "slices": {}
  },
  "time": {
    "samples": {
      "AcquisitionNumber": [1, 2, 3, 4, 5, 6, 7, 8, 9, 10, 11, 12, 13, 14, 15, 16, 17, 18, 19, 20, 21, 22, 23, 24, 25, 26, 27, 28, 29, 30, 31, 32, 33, 34, 35, 36, 37, 38, 39, 40, 41, 42, 43, 44, 45, 46, 47, 48, 49, 50, 51, 52, 53, 54, 55, 56, 57, 58, 59, 60, 61, 62, 63, 64, 65, 66, 67, 68, 69, 70, 71, 72, 73, 74, 75, 76, 77, 78, 79, 80, 81, 82, 83, 84, 85, 86, 87, 88, 89, 90, 91, 92, 93, 94, 95, 96, 97, 98, 99, 100, 101, 102, 103, 104, 105, 106, 107, 108, 109, 110, 111, 112, 113, 114, 115, 116, 117, 118, 119, 120, 121, 122, 123, 124, 125, 126, 127, 128, 129, 130, 131, 132, 133, 134, 135, 136, 137, 138, 139, 140, 141, 142, 143, 144, 145, 146, 147, 148, 149, 150, 151, 152, 153, 154, 155, 156, 157, 158, 159, 160, 161, 162, 163, 164, 165, 166, 167, 168, 169, 170, 171, 172, 173, 174, 175, 176, 177, 178, 179, 180, 181, 182, 183, 184, 185, 186, 187, 188, 189, 190, 191, 192, 193, 194, 195, 196, 197, 198, 199, 200, 201, 202, 203, 204, 205, 206, 207, 208, 209, 210, 211, 212, 213, 214, 215, 216, 217, 218, 219, 220, 221, 222, 223, 224, 225, 226, 227, 228, 229, 230, 231, 232, 233, 234, 235, 236, 237, 238, 239, 240, 241, 242, 243, 244, 245, 246, 247, 248, 249, 250, 251, 252, 253, 254, 255, 256, 257, 258, 259, 260, 261, 262, 263, 264, 265, 266, 267, 268, 269, 270, 271, 272, 273, 274, 275, 276, 277, 278, 279, 280, 281, 282, 283, 284, 285, 286, 287, 288, 289, 290, 291, 292, 293, 294, 295, 296, 297, 298, 299, 300, 301, 302, 303, 304, 305, 306, 307, 308, 309, 310, 311, 312, 313, 314, 315, 316, 317, 318, 319, 320, 321, 322, 323, 324, 325, 326, 327, 328, 329, 330, 331, 332, 333, 334, 335, 336, 337, 338, 339, 340, 341, 342, 343, 344, 345, 346, 347, 348, 349, 350, 351, 352, 353, 354, 355, 356, 357, 358, 359, 360, 361, 362, 363, 364, 365, 366, 367, 368, 369, 370, 371, 372, 373, 374, 375, 376, 377, 378, 379, 380, 381, 382, 383, 384, 385, 386, 387, 388, 389, 390, 391, 392, 393, 394, 395, 396, 397, 398, 399, 400, 401, 402, 403, 404, 405, 406, 407, 408, 409, 410, 411, 412, 413, 414, 415, 416, 417, 418, 419, 420, 421, 422, 423, 424, 425, 426, 427, 428, 429, 430, 431, 432, 433, 434, 435, 436, 437, 438, 439, 440, 441, 442, 443, 444, 445, 446, 447, 448, 449, 450, 451, 452, 453, 454, 455, 456, 457, 458, 459, 460, 461, 462, 463, 464, 465, 466, 467, 468, 469, 470, 471, 472, 473, 474, 475, 476, 477, 478, 479, 480, 481, 482, 483, 484, 485, 486, 487, 488, 489, 490, 491, 492, 493, 494, 495, 496, 497, 498, 499, 500, 501, 502, 503, 504, 505, 506, 507, 508, 509, 510, 511, 512, 513, 514],
      "AcquisitionTime": ["153843.875000", "153845.875000", "153847.875000", "153849.875000", "153851.875000", "153853.875000", "153855.875000", "153857.875000", "153859.875000", "153901.875000", "153903.875000", "153905.875000", "153907.875000", "153909.875000", "153911.875000", "153913.875000", "153915.875000", "153917.875000", "153919.875000", "153921.875000", "153923.875000", "153925.875000", "153927.875000", "153929.875000", "153931.875000", "153933.875000", "153935.875000", "153937.875000", "153939.875000", "153941.875000", "153943.875000", "153945.875000", "153947.875000", "153949.875000", "153951.875000", "153953.875000", "153955.875000", "153957.875000", "153959.875000", "154001.875000", "154003.875000", "154005.875000", "154007.875000", "154009.875000", "154011.875000", "154013.875000", "154015.875000", "154017.875000", "154019.875000", "154021.875000", "154023.875000", "154025.875000", "154027.875000", "154029.875000", "154031.875000", "154033.875000", "154035.875000", "154037.875000", "154039.875000", "154041.875000", "154043.875000", "154045.875000", "154047.875000", "154049.875000", "154051.875000", "154053.875000", "154055.875000", "154057.875000", "154059.875000", "154101.875000", "154103.875000", "154105.875000", "154107.875000", "154109.875000", "154111.875000", "154113.875000", "154115.875000", "154117.875000", "154119.875000", "154121.875000", "154123.875000", "154125.875000", "154127.875000", "154129.875000", "154131.875000", "154133.875000", "154135.875000", "154137.875000", "154139.875000", "154141.875000", "154143.875000", "154145.875000", "154147.875000", "154149.875000", "154151.875000", "154153.875000", "154155.875000", "154157.875000", "154159.875000", "154201.875000", "154203.875000", "154205.875000", "154207.875000", "154209.875000", "154211.875000", "154213.875000", "154215.875000", "154217.875000", "154219.875000", "154221.875000", "154223.875000", "154225.875000", "154227.875000", "154229.875000", "154231.875000", "154233.875000", "154235.875000", "154237.875000", "154239.875000", "154241.875000", "154243.875000", "154245.875000", "154247.875000", "154249.875000", "154251.875000", "154253.875000", "154255.875000", "154257.875000", "154259.875000", "154301.875000", "154303.875000", "154305.875000", "154307.877500", "154309.877500", "154311.877500", "154313.877500", "154315.877500", "154317.877500", "154319.877500", "154321.877500", "154323.877500", "154325.877500", "154327.877500", "154329.877500", "154331.877500", "154333.877500", "154335.877500", "154337.877500", "154339.877500", "154341.877500", "154343.877500", "154345.877500", "154347.877500", "154349.877500", "154351.877500", "154353.877500", "154355.877500", "154357.877500", "154359.877500", "154401.877500", "154403.877500", "154405.877500", "154407.877500", "154409.877500", "154411.877500", "154413.877500", "154415.877500", "154417.877500", "154419.877500", "154421.877500", "154423.877500", "154425.877500", "154427.877500", "154429.877500", "154431.877500", "154433.877500", "154435.877500", "154437.877500", "154439.877500", "154441.877500", "154443.877500", "154445.877500", "154447.877500", "154449.877500", "154451.877500", "154453.877500", "154455.877500", "154457.877500", "154459.877500", "154501.877500", "154503.877500", "154505.877500", "154507.877500", "154509.877500", "154511.877500", "154513.877500", "154515.877500", "154517.877500", "154519.877500", "154521.877500", "154523.877500", "154525.877500", "154527.877500", "154529.877500", "154531.877500", "154533.877500", "154535.877500", "154537.877500", "154539.877500", "154541.877500", "154543.877500", "154545.877500", "154547.877500", "154549.877500", "154551.877500", "154553.877500", "154555.877500", "154557.877500", "154559.877500", "154601.877500", "154603.877500", "154605.877500", "154607.877500", "154609.877500", "154611.877500", "154613.877500", "154615.877500", "154617.877500", "154619.877500", "154621.877500", "154623.877500", "154625.877500", "154627.877500", "154629.877500", "154631.877500", "154633.877500", "154635.877500", "154637.877500", "154639.877500", "154641.877500", "154643.877500", "154645.877500", "154647.877500", "154649.877500", "154651.877500", "154653.877500", "154655.877500", "154657.877500", "154659.877500", "154701.877500", "154703.877500", "154705.877500", "154707.877500", "154709.877500", "154711.877500", "154713.877500", "154715.877500", "154717.877500", "154719.877500", "154721.877500", "154723.877500", "154725.877500", "154727.877500", "154729.877500", "154731.877500", "154733.877500", "154735.877500", "154737.877500", "154739.877500", "154741.877500", "154743.877500", "154745.877500", "154747.877500", "154749.877500", "154751.877500", "154753.877500", "154755.877500", "154757.877500", "154759.877500", "154801.877500", "154803.877500", "154805.877500", "154807.877500", "154809.877500", "154811.877500", "154813.877500", "154815.877500", "154817.877500", "154819.877500", "154821.877500", "154823.877500", "154825.877500", "154827.877500", "154829.877500", "154831.877500", "154833.877500", "154835.877500", "154837.877500", "154839.877500", "154841.877500", "154843.877500", "154845.877500", "154847.877500", "154849.877500", "154851.877500", "154853.877500", "154855.877500", "154857.877500", "154859.877500", "154901.877500", "154903.877500", "154905.877500", "154907.877500", "154909.877500", "154911.877500", "154913.877500", "154915.877500", "154917.877500", "154919.877500", "154921.877500", "154923.877500", "154925.877500", "154927.877500", "154929.877500", "154931.877500", "154933.877500", "154935.877500", "154937.877500", "154939.877500", "154941.877500", "154943.877500", "154945.877500", "154947.877500", "154949.877500", "154951.877500", "154953.877500", "154955.877500", "154957.877500", "154959.877500", "155001.877500", "155003.877500", "155005.877500", "155007.877500", "155009.877500", "155011.877500", "155013.877500", "155015.877500", "155017.877500", "155019.877500", "155021.877500", "155023.877500", "155025.877500", "155027.877500", "155029.877500", "155031.877500", "155033.877500", "155035.877500", "155037.877500", "155039.877500", "155041.877500", "155043.877500", "155045.877500", "155047.877500", "155049.877500", "155051.877500", "155053.877500", "155055.877500", "155057.877500", "155059.877500", "155101.877500", "155103.877500", "155105.877500", "155107.877500", "155109.877500", "155111.877500", "155113.877500", "155115.877500", "155117.877500", "155119.877500", "155121.877500", "155123.877500", "155125.877500", "155127.880000", "155129.880000", "155131.880000", "155133.880000", "155135.880000", "155137.880000", "155139.880000", "155141.880000", "155143.880000", "155145.880000", "155147.880000", "155149.880000", "155151.880000", "155153.880000", "155155.880000", "155157.880000", "155159.880000", "155201.880000", "155203.880000", "155205.880000", "155207.880000", "155209.880000", "155211.880000", "155213.880000", "155215.880000", "155217.880000", "155219.880000", "155221.880000", "155223.880000", "155225.880000", "155227.880000", "155229.880000", "155231.880000", "155233.880000", "155235.880000", "155237.880000", "155239.880000", "155241.880000", "155243.880000", "155245.880000", "155247.880000", "155249.880000", "155251.880000", "155253.880000", "155255.880000", "155257.880000", "155259.880000", "155301.880000", "155303.880000", "155305.880000", "155307.880000", "155309.880000", "155311.880000", "155313.880000", "155315.880000", "155317.880000", "155319.880000", "155321.880000", "155323.880000", "155325.880000", "155327.880000", "155329.880000", "155331.880000", "155333.880000", "155335.880000", "155337.880000", "155339.880000", "155341.880000", "155343.880000", "155345.880000", "155347.880000", "155349.880000", "155351.880000", "155353.880000", "155355.880000", "155357.880000", "155359.880000", "155401.880000", "155403.880000", "155405.880000", "155407.880000", "155409.880000", "155411.880000", "155413.880000", "155415.880000", "155417.880000", "155419.880000", "155421.880000", "155423.880000", "155425.880000", "155427.880000", "155429.880000", "155431.880000", "155433.880000", "155435.880000", "155437.880000", "155439.880000", "155441.880000", "155443.880000", "155445.880000", "155447.880000", "155449.880000", "155451.880000", "155453.880000", "155455.880000", "155457.880000", "155459.880000", "155501.880000", "155503.880000", "155505.880000", "155507.880000", "155509.880000", "155511.880000", "155513.880000", "155515.880000", "155517.880000", "155519.880000", "155521.880000", "155523.880000", "155525.880000", "155527.880000", "155529.880000", "155531.880000", "155533.880000", "155535.880000", "155537.880000", "155539.880000", "155541.880000", "155543.880000", "155545.880000", "155547.880000", "155549.880000"],
      "ContentTime": ["153927.263000", "153927.280000", "153927.282000", "153927.283000", "153927.285000", "153927.287000", "153927.289000", "153927.291000", "153927.293000", "153927.295000", "153927.297000", "153927.299000", "153927.301000", "153927.303000", "153927.305000", "153927.307000", "153927.309000", "153927.311000", "153927.312000", "153927.314000", "153927.316000", "154007.258000", "154007.260000", "154007.262000", "154007.264000", "154007.266000", "154007.268000", "154007.270000", "154007.272000", "154007.274000", "154007.276000", "154007.284000", "154007.286000", "154007.288000", "154007.290000", "154007.292000", "154007.294000", "154007.296000", "154007.298000", "154007.299000", "154007.301000", "154047.257000", "154047.259000", "154047.261000", "154047.263000", "154047.265000", "154047.267000", "154047.269000", "154047.271000", "154047.273000", "154047.275000", "154047.277000", "154047.279000", "154047.281000", "154047.283000", "154047.285000", "154047.287000", "154047.289000", "154047.297000", "154047.299000", "154047.301000", "154127.258000", "154127.260000", "154127.262000", "154127.264000", "154127.266000", "154127.268000", "154127.270000", "154127.272000", "154127.274000", "154127.276000", "154127.278000", "154127.280000", "154127.282000", "154127.284000", "154127.286000", "154127.288000", "154127.290000", "154127.292000", "154127.293000", "154127.295000", "154207.258000", "154207.260000", "154207.262000", "154207.264000", "154207.266000", "154207.268000", "154207.270000", "154207.272000", "154207.274000", "154207.276000", "154207.278000", "154207.280000", "154207.282000", "154207.284000", "154207.286000", "154207.288000", "154207.290000", "154207.291000", "154207.293000", "154207.295000", "154247.258000", "154247.260000", "154247.262000", "154247.264000", "154247.266000", "154247.268000", "154247.270000", "154247.272000", "154247.274000", "154247.276000", "154247.278000", "154247.280000", "154247.282000", "154247.284000", "154247.286000", "154247.288000", "154247.290000", "154247.292000", "154247.293000", "154247.295000", "154327.258000", "154327.260000", "154327.262000", "154327.264000", "154327.266000", "154327.268000", "154327.279000", "154327.281000", "154327.283000", "154327.285000", "154327.287000", "154327.289000", "154327.291000", "154327.293000", "154327.295000", "154327.297000", "154327.298000", "154327.300000", "154327.302000", "154327.304000", "154407.258000", "154407.260000", "154407.262000", "154407.264000", "154407.266000", "154407.268000", "154407.270000", "154407.272000", "154407.274000", "154407.276000", "154407.278000", "154407.280000", "154407.282000", "154407.284000", "154407.286000", "154407.288000", "154407.290000", "154407.292000", "154407.294000", "154407.296000", "154447.258000", "154447.260000", "154447.262000", "154447.264000", "154447.266000", "154447.268000", "154447.270000", "154447.272000", "154447.274000", "154447.276000", "154447.278000", "154447.280000", "154447.282000", "154447.284000", "154447.286000", "154447.288000", "154447.290000", "154447.292000", "154447.293000", "154447.295000", "154527.257000", "154527.260000", "154527.262000", "154527.263000", "154527.265000", "154527.267000", "154527.269000", "154527.271000", "154527.273000", "154527.275000", "154527.277000", "154527.279000", "154527.281000", "154527.283000", "154527.285000", "154527.287000", "154527.289000", "154527.291000", "154527.293000", "154527.295000", "154607.258000", "154607.260000", "154607.262000", "154607.264000", "154607.266000", "154607.268000", "154607.270000", "154607.272000", "154607.274000", "154607.276000", "154607.278000", "154607.280000", "154607.282000", "154607.284000", "154607.286000", "154607.288000", "154607.290000", "154607.292000", "154607.294000", "154607.296000", "154647.258000", "154647.260000", "154647.262000", "154647.264000", "154647.267000", "154647.269000", "154647.271000", "154647.272000", "154647.274000", "154647.276000", "154647.278000", "154647.280000", "154647.282000", "154647.284000", "154647.286000", "154647.288000", "154647.290000", "154647.292000", "154647.294000", "154647.296000", "154727.258000", "154727.260000", "154727.262000", "154727.264000", "154727.266000", "154727.268000", "154727.270000", "154727.272000", "154727.274000", "154727.276000", "154727.278000", "154727.280000", "154727.288000", "154727.290000", "154727.292000", "154727.294000", "154727.296000", "154727.298000", "154727.300000", "154727.302000", "154807.258000", "154807.260000", "154807.262000", "154807.264000", "154807.266000", "154807.268000", "154807.270000", "154807.272000", "154807.274000", "154807.276000", "154807.278000", "154807.280000", "154807.282000", "154807.284000", "154807.286000", "154807.293000", "154807.295000", "154807.297000", "154807.299000", "154807.301000", "154847.258000", "154847.260000", "154847.262000", "154847.264000", "154847.267000", "154847.269000", "154847.270000", "154847.272000", "154847.274000", "154847.276000", "154847.278000", "154847.280000", "154847.282000", "154847.284000", "154847.286000", "154847.288000", "154847.290000", "154847.292000", "154847.294000", "154847.296000", "154927.258000", "154927.260000", "154927.267000", "154927.269000", "154927.271000", "154927.273000", "154927.275000", "154927.277000", "154927.279000", "154927.281000", "154927.283000", "154927.285000", "154927.287000", "154927.289000", "154927.291000", "154927.293000", "154927.295000", "154927.297000", "154927.299000", "154927.301000", "155007.257000", "155007.260000", "155007.262000", "155007.263000", "155007.265000", "155007.267000", "155007.269000", "155007.271000", "155007.273000", "155007.275000", "155007.277000", "155007.279000", "155007.281000", "155007.283000", "155007.285000", "155007.287000", "155007.289000", "155007.291000", "155007.293000", "155007.295000", "155047.258000", "155047.260000", "155047.262000", "155047.264000", "155047.266000", "155047.268000", "155047.270000", "155047.272000", "155047.274000", "155047.276000", "155047.278000", "155047.280000", "155047.282000", "155047.284000", "155047.286000", "155047.288000", "155047.290000", "155047.292000", "155047.294000", "155047.296000", "155127.258000", "155127.261000", "155127.263000", "155127.265000", "155127.266000", "155127.268000", "155127.270000", "155127.272000", "155127.274000", "155127.276000", "155127.278000", "155127.280000", "155127.282000", "155127.284000", "155127.286000", "155127.288000", "155127.290000", "155127.292000", "155127.294000", "155127.296000", "155207.257000", "155207.259000", "155207.261000", "155207.263000", "155207.265000", "155207.267000", "155207.269000", "155207.271000", "155207.273000", "155207.275000", "155207.277000", "155207.279000", "155207.281000", "155207.283000", "155207.285000", "155207.287000", "155207.289000", "155207.291000", "155207.293000", "155207.295000", "155247.258000", "155247.260000", "155247.262000", "155247.279000", "155247.281000", "155247.283000", "155247.285000", "155247.287000", "155247.289000", "155247.291000", "155247.293000", "155247.294000", "155247.296000", "155247.298000", "155247.300000", "155247.302000", "155247.304000", "155247.306000", "155247.308000", "155247.310000", "155327.258000", "155327.261000", "155327.263000", "155327.264000", "155327.266000", "155327.268000", "155327.270000", "155327.272000", "155327.274000", "155327.276000", "155327.278000", "155327.280000", "155327.282000", "155327.284000", "155327.286000", "155327.288000", "155327.290000", "155327.292000", "155327.294000", "155327.296000", "155407.258000", "155407.260000", "155407.262000", "155407.264000", "155407.266000", "155407.268000", "155407.270000", "155407.272000", "155407.274000", "155407.276000", "155407.278000", "155407.280000", "155407.282000", "155407.284000", "155407.286000", "155407.288000", "155407.290000", "155407.292000", "155407.294000", "155407.296000", "155447.257000", "155447.259000", "155447.261000", "155447.263000", "155447.265000", "155447.267000", "155447.269000", "155447.271000", "155447.273000", "155447.275000", "155447.277000", "155447.279000", "155447.281000", "155447.283000", "155447.285000", "155447.287000", "155447.289000", "155447.291000", "155447.293000", "155447.295000", "155527.258000", "155527.261000", "155527.263000", "155527.265000", "155527.267000", "155527.269000", "155527.270000", "155527.272000", "155527.274000", "155527.276000", "155527.278000", "155527.280000", "155527.282000", "155527.284000", "155527.286000", "155527.288000", "155527.290000", "155527.292000", "155527.294000", "155527.296000", "155551.680000", "155551.683000", "155551.685000", "155551.687000", "155551.689000", "155551.691000", "155551.693000", "155551.695000", "155551.696000", "155551.698000", "155551.700000", "155551.702000", "155551.704000"],
