{
  "AcquisitionMatrixPE": 64,
  "AcquisitionNumber": 1,
  "AcquisitionTime": "14:32:46.342500",
  "BandwidthPerPixelPhaseEncode": 25.202,
  "BaseResolution": 64,
  "BodyPartExamined": "BRAIN",
  "ConsistencyInfo": "N4_VD13C_LATEST_20121124",
  "ConversionSoftware": "dcm2niix",
  "ConversionSoftwareVersion": "v1.0.20201102",
  "DerivedVendorReportedEchoSpacing": 0.00061999,
  "DeviceSerialNumber": "45758",
  "DwellTime": 4.3e-06,
  "EchoTime": 0.03,
  "EchoTrainLength": 64,
  "EffectiveEchoSpacing": 0.00061999,
  "FlipAngle": 90,
  "ImageOrientationPatientDICOM": [0.999214, 0.0376438, 0.012434, -0.0366395, 0.996661, -0.072974],
  "ImageType": [
    "ORIGINAL",
    "PRIMARY",
    "M",
    "ND",
    "MOSAIC"
],
  "ImagingFrequency": 123.2,
  "InPlanePhaseEncodingDirectionDICOM": "ROW",
  "InstitutionAddress": "Street StreetNo,City /652E4B/,District,KR,ZIP",
  "InstitutionName": "DGMIF",
  "InstitutionalDepartmentName": "Department",
  "MRAcquisitionType": "2D",
  "MagneticFieldStrength": 3,
  "Manufacturer": "Siemens",
  "ManufacturersModelName": "Skyra",
  "Modality": "MR",
  "PartialFourier": 1,
  "PatientPosition": "HFS",
  "PercentPhaseFOV": 100,
  "PercentSampling": 100,
  "PhaseEncodingDirection": "i",
  "PhaseEncodingSteps": 64,
  "PhaseResolution": 1,
  "PixelBandwidth": 1815,
  "ProcedureStepDescription": "DGMIF^DGIST_Jeon",
  "ProtocolName": "EPI_DGIST_3",
  "PulseSequenceDetails": "%SiemensSeq%\\ep2d_bold",
  "ReceiveCoilActiveElements": "HC1-6",
  "ReceiveCoilName": "HeadNeck_64",
  "ReconMatrixPE": 64,
  "RepetitionTime": 2,
  "SAR": 0.124522,
  "ScanOptions": "FS",
  "ScanningSequence": "EP",
  "SequenceName": "*epfid2d1_64",
  "SequenceVariant": "SK",
  "SeriesDescription": "EPI_DGIST_3",
  "SeriesNumber": 4,
  "ShimSetting": [-9691, -13752, -8110, 334, -166, -176, -90, -236],
  "SliceThickness": 4,
  "SliceTiming": [0.99, 0, 1.055, 0.065, 1.12, 0.1325, 1.1875, 0.1975, 1.2525, 0.2625, 1.32, 0.33, 1.385, 0.395, 1.45, 0.4625, 1.5175, 0.5275, 1.5825, 0.5925, 1.65, 0.66, 1.715, 0.725, 1.78, 0.79, 1.8475, 0.8575, 1.9125, 0.9225],
  "SoftwareVersions": "syngo MR D13C",
  "SpacingBetweenSlices": 4.8,
  "StationName": "AWP45758",
  "TaskName": "asrt",
  "TotalReadoutTime": 0.0390594,
  "TxRefAmp": 313.447,
  "dcmmeta_affine": [
    [-2.9976415634155273, -0.10991852730512619, 0.07266952842473984, 98.93960571289062],
    [-0.11293131113052368, 2.9899818897247314, -0.34781283140182495, -115.78607940673828],
    [0.03730197995901108, 0.21892185509204865, 4.786830425262451, -60.59867477416992],
    [0.0, 0.0, 0.0, 1.0]
],
  "dcmmeta_reorient_transform": [
    [0.0, -1.0, 0.0, 63.0],
    [1.0, 0.0, 0.0, 0.0],
    [0.0, 0.0, 1.0, 0.0],
    [0.0, 0.0, 0.0, 1.0]
],
  "dcmmeta_shape": [64, 64, 30, 364],
  "dcmmeta_slice_dim": 2,
  "dcmmeta_version": 0.6,
  "global": {
    "const": {
      "AcquisitionMatrix": [0, 64, 64, 0],
      "AngioFlag": "N",
      "BitsAllocated": 16,
      "BitsStored": 12,
      "BodyPartExamined": "BRAIN",
      "Columns": 384,
      "EchoNumbers": 1,
      "EchoTime": 30.0,
      "EchoTrainLength": 64,
      "FlipAngle": 90.0,
      "HighBit": 11,
      "ImageOrientationPatient": [0.99921386215461, 0.03764377098171, 0.01243399309775, -0.036639509431, 0.99666059865206, -0.0729739504424],
      "ImagePositionPatient": [-554.05042720206, -569.04887341235, -17.747419475479],
      "ImageType": [
        "ORIGINAL",
        "PRIMARY",
        "M",
        "ND",
        "MOSAIC"
],
      "ImagedNucleus": "1H",
      "ImagingFrequency": 123.200183,
      "InPlanePhaseEncodingDirection": "ROW",
      "MRAcquisitionType": "2D",
      "MagneticFieldStrength": 3.0,
      "Manufacturer": "SIEMENS",
      "ManufacturerModelName": "Skyra",
      "Modality": "MR",
      "NumberOfAverages": 1.0,
      "NumberOfPhaseEncodingSteps": 64,
      "PercentPhaseFieldOfView": 100.0,
      "PercentSampling": 100.0,
      "PerformedProcedureStepStartTime": "135235.010000",
      "PhotometricInterpretation": "MONOCHROME2",
      "PixelBandwidth": 1815.0,
      "PixelRepresentation": 0,
      "PixelSpacing": [3.0, 3.0],
      "ProtocolName": "EPI_DGIST_3",
      "RepetitionTime": 2000.0,
      "Rows": 384,
      "SAR": 0.12452191852603,
      "SamplesPerPixel": 1,
      "ScanOptions": "FS",
      "ScanningSequence": "EP",
      "SequenceName": "*epfid2d1_64",
      "SequenceVariant": "SK",
      "SeriesDescription": "EPI_DGIST_3",
      "SeriesNumber": 4,
      "SeriesTime": "143253.770000",
      "SliceLocation": -50.54454265405,
      "SliceThickness": 4.0,
      "SmallestImagePixelValue": 0,
      "SoftwareVersions": "syngo MR D13C",
      "SpacingBetweenSlices": 4.7999999673878,
      "SpecificCharacterSet": "ISO_IR 100",
      "StudyID": "1",
      "StudyTime": "135234.960000",
      "TimeOfLastCalibration": ["123723.000000", "123723.000000"],
      "TransmitCoilName": "Body",
      "VariableFlipAngleFlag": "N",
      "WindowCenterWidthExplanation": "Algo1",
      "dBdt": 0.0},
    "slices": {}
  },
  "time": {
    "samples": {
      "AcquisitionNumber": [1, 2, 3, 4, 5, 6, 7, 8, 9, 10, 11, 12, 13, 14, 15, 16, 17, 18, 19, 20, 21, 22, 23, 24, 25, 26, 27, 28, 29, 30, 31, 32, 33, 34, 35, 36, 37, 38, 39, 40, 41, 42, 43, 44, 45, 46, 47, 48, 49, 50, 51, 52, 53, 54, 55, 56, 57, 58, 59, 60, 61, 62, 63, 64, 65, 66, 67, 68, 69, 70, 71, 72, 73, 74, 75, 76, 77, 78, 79, 80, 81, 82, 83, 84, 85, 86, 87, 88, 89, 90, 91, 92, 93, 94, 95, 96, 97, 98, 99, 100, 101, 102, 103, 104, 105, 106, 107, 108, 109, 110, 111, 112, 113, 114, 115, 116, 117, 118, 119, 120, 121, 122, 123, 124, 125, 126, 127, 128, 129, 130, 131, 132, 133, 134, 135, 136, 137, 138, 139, 140, 141, 142, 143, 144, 145, 146, 147, 148, 149, 150, 151, 152, 153, 154, 155, 156, 157, 158, 159, 160, 161, 162, 163, 164, 165, 166, 167, 168, 169, 170, 171, 172, 173, 174, 175, 176, 177, 178, 179, 180, 181, 182, 183, 184, 185, 186, 187, 188, 189, 190, 191, 192, 193, 194, 195, 196, 197, 198, 199, 200, 201, 202, 203, 204, 205, 206, 207, 208, 209, 210, 211, 212, 213, 214, 215, 216, 217, 218, 219, 220, 221, 222, 223, 224, 225, 226, 227, 228, 229, 230, 231, 232, 233, 234, 235, 236, 237, 238, 239, 240, 241, 242, 243, 244, 245, 246, 247, 248, 249, 250, 251, 252, 253, 254, 255, 256, 257, 258, 259, 260, 261, 262, 263, 264, 265, 266, 267, 268, 269, 270, 271, 272, 273, 274, 275, 276, 277, 278, 279, 280, 281, 282, 283, 284, 285, 286, 287, 288, 289, 290, 291, 292, 293, 294, 295, 296, 297, 298, 299, 300, 301, 302, 303, 304, 305, 306, 307, 308, 309, 310, 311, 312, 313, 314, 315, 316, 317, 318, 319, 320, 321, 322, 323, 324, 325, 326, 327, 328, 329, 330, 331, 332, 333, 334, 335, 336, 337, 338, 339, 340, 341, 342, 343, 344, 345, 346, 347, 348, 349, 350, 351, 352, 353, 354, 355, 356, 357, 358, 359, 360, 361, 362, 363, 364],
      "AcquisitionTime": ["143246.342500", "143248.342500", "143250.342500", "143252.342500", "143254.342500", "143256.342500", "143258.342500", "143300.342500", "143302.342500", "143304.342500", "143306.342500", "143308.342500", "143310.342500", "143312.342500", "143314.342500", "143316.342500", "143318.342500", "143320.342500", "143322.342500", "143324.342500", "143326.342500", "143328.342500", "143330.342500", "143332.342500", "143334.342500", "143336.342500", "143338.342500", "143340.342500", "143342.342500", "143344.342500", "143346.342500", "143348.342500", "143350.342500", "143352.342500", "143354.342500", "143356.342500", "143358.342500", "143400.342500", "143402.342500", "143404.342500", "143406.342500", "143408.342500", "143410.342500", "143412.342500", "143414.342500", "143416.342500", "143418.342500", "143420.342500", "143422.342500", "143424.342500", "143426.342500", "143428.342500", "143430.342500", "143432.342500", "143434.342500", "143436.342500", "143438.342500", "143440.342500", "143442.342500", "143444.342500", "143446.342500", "143448.342500", "143450.342500", "143452.342500", "143454.342500", "143456.342500", "143458.342500", "143500.342500", "143502.342500", "143504.342500", "143506.342500", "143508.342500", "143510.342500", "143512.342500", "143514.342500", "143516.342500", "143518.342500", "143520.342500", "143522.342500", "143524.342500", "143526.342500", "143528.342500", "143530.342500", "143532.342500", "143534.342500", "143536.342500", "143538.342500", "143540.342500", "143542.342500", "143544.342500", "143546.342500", "143548.342500", "143550.342500", "143552.342500", "143554.342500", "143556.342500", "143558.342500", "143600.342500", "143602.342500", "143604.342500", "143606.342500", "143608.342500", "143610.342500", "143612.342500", "143614.342500", "143616.342500", "143618.342500", "143620.342500", "143622.342500", "143624.342500", "143626.342500", "143628.342500", "143630.342500", "143632.342500", "143634.342500", "143636.342500", "143638.342500", "143640.342500", "143642.342500", "143644.342500", "143646.342500", "143648.342500", "143650.342500", "143652.342500", "143654.342500", "143656.342500", "143658.342500", "143700.342500", "143702.342500", "143704.342500", "143706.342500", "143708.342500", "143710.342500", "143712.342500", "143714.342500", "143716.342500", "143718.342500", "143720.342500", "143722.342500", "143724.342500", "143726.342500", "143728.342500", "143730.342500", "143732.342500", "143734.342500", "143736.342500", "143738.342500", "143740.342500", "143742.342500", "143744.342500", "143746.342500", "143748.342500", "143750.342500", "143752.342500", "143754.342500", "143756.342500", "143758.342500", "143800.342500", "143802.342500", "143804.342500", "143806.342500", "143808.342500", "143810.342500", "143812.342500", "143814.342500", "143816.342500", "143818.342500", "143820.342500", "143822.342500", "143824.342500", "143826.342500", "143828.342500", "143830.342500", "143832.342500", "143834.342500", "143836.342500", "143838.342500", "143840.342500", "143842.342500", "143844.342500", "143846.342500", "143848.342500", "143850.342500", "143852.342500", "143854.342500", "143856.342500", "143858.342500", "143900.342500", "143902.342500", "143904.342500", "143906.342500", "143908.342500", "143910.342500", "143912.342500", "143914.342500", "143916.342500", "143918.342500", "143920.342500", "143922.342500", "143924.342500", "143926.342500", "143928.342500", "143930.342500", "143932.342500", "143934.342500", "143936.342500", "143938.345000", "143940.345000", "143942.345000", "143944.345000", "143946.345000", "143948.345000", "143950.345000", "143952.345000", "143954.345000", "143956.345000", "143958.345000", "144000.345000", "144002.345000", "144004.345000", "144006.345000", "144008.345000", "144010.345000", "144012.345000", "144014.345000", "144016.345000", "144018.345000", "144020.345000", "144022.345000", "144024.345000", "144026.345000", "144028.345000", "144030.345000", "144032.345000", "144034.345000", "144036.345000", "144038.345000", "144040.345000", "144042.345000", "144044.345000", "144046.345000", "144048.345000", "144050.345000", "144052.345000", "144054.345000", "144056.345000", "144058.345000", "144100.345000", "144102.345000", "144104.345000", "144106.345000", "144108.345000", "144110.345000", "144112.345000", "144114.345000", "144116.345000", "144118.345000", "144120.345000", "144122.345000", "144124.345000", "144126.345000", "144128.345000", "144130.345000", "144132.345000", "144134.345000", "144136.345000", "144138.345000", "144140.345000", "144142.345000", "144144.345000", "144146.345000", "144148.345000", "144150.345000", "144152.345000", "144154.345000", "144156.345000", "144158.345000", "144200.345000", "144202.345000", "144204.345000", "144206.345000", "144208.345000", "144210.345000", "144212.345000", "144214.345000", "144216.345000", "144218.345000", "144220.345000", "144222.345000", "144224.345000", "144226.345000", "144228.345000", "144230.345000", "144232.345000", "144234.345000", "144236.345000", "144238.345000", "144240.345000", "144242.345000", "144244.345000", "144246.345000", "144248.345000", "144250.345000", "144252.345000", "144254.345000", "144256.345000", "144258.345000", "144300.345000", "144302.345000", "144304.345000", "144306.345000", "144308.345000", "144310.345000", "144312.345000", "144314.345000", "144316.345000", "144318.345000", "144320.345000", "144322.345000", "144324.345000", "144326.345000", "144328.345000", "144330.345000", "144332.345000", "144334.345000", "144336.345000", "144338.345000", "144340.345000", "144342.345000", "144344.345000", "144346.345000", "144348.345000", "144350.345000", "144352.345000", "144354.345000", "144356.345000", "144358.345000", "144400.345000", "144402.345000", "144404.345000", "144406.345000", "144408.345000", "144410.345000", "144412.345000", "144414.345000", "144416.345000", "144418.345000", "144420.345000", "144422.345000", "144424.345000", "144426.345000", "144428.345000", "144430.345000", "144432.345000", "144434.345000", "144436.345000", "144438.345000", "144440.345000", "144442.345000", "144444.345000", "144446.345000", "144448.345000", "144450.345000", "144452.345000"],
      "ContentTime": ["143253.773000", "143253.775000", "143253.778000", "143253.780000", "143333.769000", "143333.772000", "143333.774000", "143333.776000", "143333.778000", "143333.780000", "143333.782000", "143333.784000", "143333.785000", "143333.788000", "143333.790000", "143333.799000", "143333.801000", "143333.803000", "143333.805000", "143333.807000", "143333.809000", "143333.811000", "143333.813000", "143333.815000", "143413.769000", "143413.772000", "143413.774000", "143413.776000", "143413.778000", "143413.780000", "143413.782000", "143413.784000", "143413.786000", "143413.788000", "143413.790000", "143413.792000", "143413.794000", "143413.796000", "143413.798000", "143413.799000", "143413.801000", "143413.809000", "143413.811000", "143413.813000", "143453.768000", "143453.771000", "143453.773000", "143453.775000", "143453.777000", "143453.787000", "143453.789000", "143453.791000", "143453.793000", "143453.795000", "143453.797000", "143453.799000", "143453.801000", "143453.803000", "143453.805000", "143453.807000", "143453.809000", "143453.811000", "143453.813000", "143453.828000", "143533.768000", "143533.771000", "143533.772000", "143533.774000", "143533.776000", "143533.778000", "143533.780000", "143533.782000", "143533.784000", "143533.786000", "143533.788000", "143533.790000", "143533.792000", "143533.794000", "143533.796000", "143533.798000", "143533.800000", "143533.802000", "143533.804000", "143533.806000", "143613.769000", "143613.772000", "143613.774000", "143613.775000", "143613.777000", "143613.780000", "143613.782000", "143613.784000", "143613.786000", "143613.788000", "143613.790000", "143613.792000", "143613.794000", "143613.796000", "143613.798000", "143613.799000", "143613.801000", "143613.804000", "143613.805000", "143613.807000", "143653.769000", "143653.772000", "143653.774000", "143653.776000", "143653.778000", "143653.780000", "143653.782000", "143653.784000", "143653.786000", "143653.788000", "143653.790000", "143653.792000", "143653.794000", "143653.796000", "143653.798000", "143653.800000", "143653.801000", "143653.804000", "143653.805000", "143653.807000", "143733.768000", "143733.771000", "143733.773000", "143733.775000", "143733.777000", "143733.779000", "143733.781000", "143733.783000", "143733.785000", "143733.787000", "143733.789000", "143733.791000", "143733.793000", "143733.795000", "143733.797000", "143733.798000", "143733.800000", "143733.802000", "143733.804000", "143733.806000", "143813.769000", "143813.772000", "143813.774000", "143813.776000", "143813.778000", "143813.780000", "143813.782000", "143813.784000", "143813.786000", "143813.788000", "143813.790000", "143813.791000", "143813.793000", "143813.795000", "143813.797000", "143813.799000", "143813.801000", "143813.803000", "143813.805000", "143813.807000", "143853.769000", "143853.772000", "143853.774000", "143853.776000", "143853.778000", "143853.780000", "143853.782000", "143853.784000", "143853.786000", "143853.788000", "143853.790000", "143853.792000", "143853.794000", "143853.796000", "143853.798000", "143853.800000", "143853.802000", "143853.804000", "143853.806000", "143853.815000", "143933.768000", "143933.771000", "143933.773000", "143933.775000", "143933.777000", "143933.779000", "143933.781000", "143933.783000", "143933.785000", "143933.787000", "143933.789000", "143933.791000", "143933.793000", "143933.795000", "143933.797000", "143933.799000", "143933.801000", "143933.803000", "143933.805000", "143933.806000", "144013.768000", "144013.771000", "144013.773000", "144013.775000", "144013.777000", "144013.779000", "144013.781000", "144013.783000", "144013.785000", "144013.787000", "144013.789000", "144013.791000", "144013.792000", "144013.795000", "144013.796000", "144013.799000", "144013.800000", "144013.802000", "144013.804000", "144013.806000", "144053.769000", "144053.772000", "144053.774000", "144053.775000", "144053.777000", "144053.780000", "144053.782000", "144053.784000", "144053.785000", "144053.788000", "144053.790000", "144053.792000", "144053.794000", "144053.796000", "144053.798000", "144053.800000", "144053.802000", "144053.804000", "144053.806000", "144053.808000", "144133.769000", "144133.772000", "144133.774000", "144133.776000", "144133.777000", "144133.780000", "144133.782000", "144133.784000", "144133.786000", "144133.788000", "144133.790000", "144133.792000", "144133.794000", "144133.796000", "144133.798000", "144133.800000", "144133.802000", "144133.804000", "144133.806000", "144133.808000", "144153.768000", "144153.771000", "144153.773000", "144153.775000", "144153.776000", "144153.779000", "144153.781000", "144153.782000", "144153.784000", "144153.787000", "144233.768000", "144233.770000", "144233.772000", "144233.775000", "144233.777000", "144233.779000", "144233.781000", "144233.783000", "144233.785000", "144233.787000", "144233.789000", "144233.791000", "144233.793000", "144233.795000", "144233.797000", "144233.799000", "144233.801000", "144233.803000", "144233.805000", "144233.807000", "144313.769000", "144313.771000", "144313.773000", "144313.776000", "144313.778000", "144313.780000", "144313.782000", "144313.784000", "144313.786000", "144313.788000", "144313.790000", "144313.792000", "144313.794000", "144313.796000", "144313.798000", "144313.800000", "144313.802000", "144313.804000", "144313.806000", "144313.808000", "144353.768000", "144353.770000", "144353.772000", "144353.775000", "144353.777000", "144353.779000", "144353.781000", "144353.783000", "144353.785000", "144353.787000", "144353.789000", "144353.791000", "144353.793000", "144353.794000", "144353.796000", "144353.798000", "144353.800000", "144353.802000", "144353.804000", "144353.806000", "144433.768000", "144433.770000", "144433.772000", "144433.774000", "144433.776000", "144433.778000", "144433.792000", "144433.795000", "144433.797000", "144433.798000", "144433.800000", "144433.803000", "144433.805000", "144433.806000", "144433.808000", "144433.811000", "144433.813000", "144433.815000", "144433.817000", "144433.819000", "144453.674000", "144453.676000", "144453.678000", "144453.680000", "144453.682000", "144453.684000", "144453.686000", "144453.688000", "144453.690000", "144453.692000"],
      "InstanceCreationTime": ["143253.773000", "143253.775000", "143253.778000", "143253.780000", "143333.769000", "143333.772000", "143333.774000", "143333.776000", "143333.778000", "143333.780000", "143333.782000", "143333.784000", "143333.785000", "143333.788000", "143333.790000", "143333.799000", "143333.801000", "143333.803000", "143333.805000", "143333.807000", "143333.809000", "143333.811000", "143333.813000", "143333.815000", "143413.769000", "143413.772000", "143413.774000", "143413.776000", "143413.778000", "143413.780000", "143413.782000", "143413.784000", "143413.786000", "143413.788000", "143413.790000", "143413.792000", "143413.794000", "143413.796000", "143413.798000", "143413.799000", "143413.801000", "143413.809000", "143413.811000", "143413.813000", "143453.768000", "143453.771000", "143453.773000", "143453.775000", "143453.777000", "143453.787000", "143453.789000", "143453.791000", "143453.793000", "143453.795000", "143453.797000", "143453.799000", "143453.801000", "143453.803000", "143453.805000", "143453.807000", "143453.809000", "143453.811000", "143453.813000", "143453.828000", "143533.768000", "143533.771000", "143533.772000", "143533.774000", "143533.776000", "143533.778000", "143533.780000", "143533.782000", "143533.784000", "143533.786000", "143533.788000", "143533.790000", "143533.792000", "143533.794000", "143533.796000", "143533.798000", "143533.800000", "143533.802000", "143533.804000", "143533.806000", "143613.769000", "143613.772000", "143613.774000", "143613.775000", "143613.777000", "143613.780000", "143613.782000", "143613.784000", "143613.786000", "143613.788000", "143613.790000", "143613.792000", "143613.794000", "143613.796000", "143613.798000", "143613.799000", "143613.801000", "143613.804000", "143613.805000", "143613.807000", "143653.769000", "143653.772000", "143653.774000", "143653.776000", "143653.778000", "143653.780000", "143653.782000", "143653.784000", "143653.786000", "143653.788000", "143653.790000", "143653.792000", "143653.794000", "143653.796000", "143653.798000", "143653.800000", "143653.801000", "143653.804000", "143653.805000", "143653.807000", "143733.768000", "143733.771000", "143733.773000", "143733.775000", "143733.777000", "143733.779000", "143733.781000", "143733.783000", "143733.785000", "143733.787000", "143733.789000", "143733.791000", "143733.793000", "143733.795000", "143733.797000", "143733.798000", "143733.800000", "143733.802000", "143733.804000", "143733.806000", "143813.769000", "143813.772000", "143813.774000", "143813.776000", "143813.778000", "143813.780000", "143813.782000", "143813.784000", "143813.786000", "143813.788000", "143813.790000", "143813.791000", "143813.793000", "143813.795000", "143813.797000", "143813.799000", "143813.801000", "143813.803000", "143813.805000", "143813.807000", "143853.769000", "143853.772000", "143853.774000", "143853.776000", "143853.778000", "143853.780000", "143853.782000", "143853.784000", "143853.786000", "143853.788000", "143853.790000", "143853.792000", "143853.794000", "143853.796000", "143853.798000", "143853.800000", "143853.802000", "143853.804000", "143853.806000", "143853.815000", "143933.768000", "143933.771000", "143933.773000", "143933.775000", "143933.777000", "143933.779000", "143933.781000", "143933.783000", "143933.785000", "143933.787000", "143933.789000", "143933.791000", "143933.793000", "143933.795000", "143933.797000", "143933.799000", "143933.801000", "143933.803000", "143933.805000", "143933.806000", "144013.768000", "144013.771000", "144013.773000", "144013.775000", "144013.777000", "144013.779000", "144013.781000", "144013.783000", "144013.785000", "144013.787000", "144013.789000", "144013.791000", "144013.792000", "144013.795000", "144013.796000", "144013.799000", "144013.800000", "144013.802000", "144013.804000", "144013.806000", "144053.769000", "144053.772000", "144053.774000", "144053.775000", "144053.777000", "144053.780000", "144053.782000", "144053.784000", "144053.785000", "144053.788000", "144053.790000", "144053.792000", "144053.794000", "144053.796000", "144053.798000", "144053.800000", "144053.802000", "144053.804000", "144053.806000", "144053.808000", "144133.769000", "144133.772000", "144133.774000", "144133.776000", "144133.777000", "144133.780000", "144133.782000", "144133.784000", "144133.786000", "144133.788000", "144133.790000", "144133.792000", "144133.794000", "144133.796000", "144133.798000", "144133.800000", "144133.802000", "144133.804000", "144133.806000", "144133.808000", "144153.768000", "144153.771000", "144153.773000", "144153.775000", "144153.776000", "144153.779000", "144153.781000", "144153.782000", "144153.784000", "144153.787000", "144233.768000", "144233.770000", "144233.772000", "144233.775000", "144233.777000", "144233.779000", "144233.781000", "144233.783000", "144233.785000", "144233.787000", "144233.789000", "144233.791000", "144233.793000", "144233.795000", "144233.797000", "144233.799000", "144233.801000", "144233.803000", "144233.805000", "144233.807000", "144313.769000", "144313.771000", "144313.773000", "144313.776000", "144313.778000", "144313.780000", "144313.782000", "144313.784000", "144313.786000", "144313.788000", "144313.790000", "144313.792000", "144313.794000", "144313.796000", "144313.798000", "144313.800000", "144313.802000", "144313.804000", "144313.806000", "144313.808000", "144353.768000", "144353.770000", "144353.772000", "144353.775000", "144353.777000", "144353.779000", "144353.781000", "144353.783000", "144353.785000", "144353.787000", "144353.789000", "144353.791000", "144353.793000", "144353.794000", "144353.796000", "144353.798000", "144353.800000", "144353.802000", "144353.804000", "144353.806000", "144433.768000", "144433.770000", "144433.772000", "144433.774000", "144433.776000", "144433.778000", "144433.792000", "144433.795000", "144433.797000", "144433.798000", "144433.800000", "144433.803000", "144433.805000", "144433.806000", "144433.808000", "144433.811000", "144433.813000", "144433.815000", "144433.817000", "144433.819000", "144453.674000", "144453.676000", "144453.678000", "144453.680000", "144453.682000", "144453.684000", "144453.686000", "144453.688000", "144453.690000", "144453.692000"],
      "InstanceNumber": [1, 2, 3, 4, 5, 6, 7, 8, 9, 10, 11, 12, 13, 14, 15, 16, 17, 18, 19, 20, 21, 22, 23, 24, 25, 26, 27, 28, 29, 30, 31, 32, 33, 34, 35, 36, 37, 38, 39, 40, 41, 42, 43, 44, 45, 46, 47, 48, 49, 50, 51, 52, 53, 54, 55, 56, 57, 58, 59, 60, 61, 62, 63, 64, 65, 66, 67, 68, 69, 70, 71, 72, 73, 74, 75, 76, 77, 78, 79, 80, 81, 82, 83, 84, 85, 86, 87, 88, 89, 90, 91, 92, 93, 94, 95, 96, 97, 98, 99, 100, 101, 102, 103, 104, 105, 106, 107, 108, 109, 110, 111, 112, 113, 114, 115, 116, 117, 118, 119, 120, 121, 122, 123, 124, 125, 126, 127, 128, 129, 130, 131, 132, 133, 134, 135, 136, 137, 138, 139, 140, 141, 142, 143, 144, 145, 146, 147, 148, 149, 150, 151, 152, 153, 154, 155, 156, 157, 158, 159, 160, 161, 162, 163, 164, 165, 166, 167, 168, 169, 170, 171, 172, 173, 174, 175, 176, 177, 178, 179, 180, 181, 182, 183, 184, 185, 186, 187, 188, 189, 190, 191, 192, 193, 194, 195, 196, 197, 198, 199, 200, 201, 202, 203, 204, 205, 206, 207, 208, 209, 210, 211, 212, 213, 214, 215, 216, 217, 218, 219, 220, 221, 222, 223, 224, 225, 226, 227, 228, 229, 230, 231, 232, 233, 234, 235, 236, 237, 238, 239, 240, 241, 242, 243, 244, 245, 246, 247, 248, 249, 250, 251, 252, 253, 254, 255, 256, 257, 258, 259, 260, 261, 262, 263, 264, 265, 266, 267, 268, 269, 270, 271, 272, 273, 274, 275, 276, 277, 278, 279, 280, 281, 282, 283, 284, 285, 286, 287, 288, 289, 290, 291, 292, 293, 294, 295, 296, 297, 298, 299, 300, 301, 302, 303, 304, 305, 306, 307, 308, 309, 310, 311, 312, 313, 314, 315, 316, 317, 318, 319, 320, 321, 322, 323, 324, 325, 326, 327, 328, 329, 330, 331, 332, 333, 334, 335, 336, 337, 338, 339, 340, 341, 342, 343, 344, 345, 346, 347, 348, 349, 350, 351, 352, 353, 354, 355, 356, 357, 358, 359, 360, 361, 362, 363, 364],
      "LargestImagePixelValue": [3203, 3135, 3107, 3081, 3099, 3111, 3091, 3092, 3068, 3030, 3051, 3051, 3046, 3060, 3071, 3087, 3090, 3068, 3066, 3078, 3090, 3090, 3060, 3063, 3053, 3040, 3094, 3084, 3057, 3048, 3058, 3062, 3085, 3035, 3028, 3053, 3053, 3054, 3041, 3050, 3031, 3023, 3040, 3071, 3065, 3059, 3063, 3045, 3037, 3020, 3043, 3052, 3052, 3033, 3023, 3026, 3005, 3021, 3026, 3001, 3015, 3052, 3057, 3089, 3031, 2962, 2976, 2962, 2973, 2963, 2987, 3016, 3016, 2987, 3012, 3044, 3072, 3027, 3019, 2994, 3014, 3059, 3054, 3044, 3013, 2992, 3005, 3024, 3039, 3012, 2962, 2965, 3037, 3048, 3027, 3062, 3060, 3050, 3038, 3043, 3037, 3040, 3035, 3009, 2996, 3036, 3039, 3000, 2985, 2994, 3021, 3024, 2970, 2962, 2997, 2986, 2981, 2974, 3015, 3025, 3013, 3010, 3047, 3051, 3032, 3009, 2997, 3023, 3049, 3059, 3038, 3068, 3033, 3018, 3010, 2984, 2988, 2976, 2976, 2958, 2945, 2978, 2943, 2979, 3027, 2993, 2999, 3017, 3013, 3008, 3012, 3014, 3086, 3036, 3027, 3032, 3000, 2965, 2951, 2945, 2995, 3021, 2997, 2995, 2956, 2927, 2927, 2930, 2953, 2978, 2984, 3012, 2994, 3022, 3066, 3057, 3052, 3054, 3050, 3035, 3032, 3057, 3108, 3066, 2978, 2948, 2938, 2960, 3024, 3028, 3038, 3024, 3017, 2994, 3023, 3003, 2992, 2979, 2960, 2969, 2986, 2995, 2987, 2990, 2983, 2978, 2982, 2981, 2972, 2981, 3031, 3022, 3050, 3020, 3019, 3048, 2987, 2945, 2911, 2937, 2910, 2945, 2973, 2986, 3010, 2996, 3004, 3014, 3016, 3003, 3027, 3028, 3023, 3030, 3036, 3050, 3063, 3035, 2964, 2969, 2982, 3041, 3123, 3036, 3033, 2944, 2897, 2914, 2941, 3003, 2986, 2999, 3011, 3020, 3025, 2984, 2959, 2981, 3000, 3011, 3012, 3025, 2997, 3005, 2975, 2998, 3024, 3001, 3002, 3017, 3047, 3051, 3054, 3006, 2978, 2981, 2965, 2910, 2916, 2926, 2926, 2987, 3009, 3021, 2978, 2998, 3020, 3028, 3012, 2997, 2989, 2998, 3014, 2998, 2995, 2975, 2987, 2995, 3012, 3025, 3063, 3065, 3025, 2986, 2990, 3028, 3006, 2919, 2886, 2878, 2902, 2910, 2941, 2984, 3004, 3036, 3072, 3078, 3065, 3059, 3059, 3057, 3055, 3047, 3037, 3025, 3023, 3052, 3013, 2977, 2980, 3024, 3011, 3025, 3013, 2929, 2923, 2917, 2922, 2952, 2975, 2963, 2955, 3001, 2910, 2935, 2929, 2884, 2917, 2906, 2935, 2971, 2959, 2914, 2949, 2950, 2936, 2956, 2966, 2953, 2948, 2922, 2939, 2954],
