{
  "AcquisitionMatrixPE": 64,
  "AcquisitionNumber": 1,
  "AcquisitionTime": "14:18:55.467500",
  "BandwidthPerPixelPhaseEncode": 25.202,
  "BaseResolution": 64,
  "BodyPartExamined": "BRAIN",
  "ConsistencyInfo": "N4_VD13C_LATEST_20121124",
  "ConversionSoftware": "dcm2niix",
  "ConversionSoftwareVersion": "v1.0.20201102",
  "DerivedVendorReportedEchoSpacing": 0.00061999,
  "DeviceSerialNumber": "45758",
  "DwellTime": 4.3e-06,
  "EchoTime": 0.03,
  "EchoTrainLength": 64,
  "EffectiveEchoSpacing": 0.00061999,
  "FlipAngle": 90,
  "ImageOrientationPatientDICOM": [0.999214, 0.0376438, 0.012434, -0.0366395, 0.996661, -0.072974],
  "ImageType": [
    "ORIGINAL",
    "PRIMARY",
    "M",
    "ND",
    "MOSAIC"
],
  "ImagingFrequency": 123.2,
  "InPlanePhaseEncodingDirectionDICOM": "ROW",
  "InstitutionAddress": "Street StreetNo,City /652E4B/,District,KR,ZIP",
  "InstitutionName": "DGMIF",
  "InstitutionalDepartmentName": "Department",
  "MRAcquisitionType": "2D",
  "MagneticFieldStrength": 3,
  "Manufacturer": "Siemens",
  "ManufacturersModelName": "Skyra",
  "Modality": "MR",
  "PartialFourier": 1,
  "PatientPosition": "HFS",
  "PercentPhaseFOV": 100,
  "PercentSampling": 100,
  "PhaseEncodingDirection": "i",
  "PhaseEncodingSteps": 64,
  "PhaseResolution": 1,
  "PixelBandwidth": 1815,
  "ProcedureStepDescription": "DGMIF^DGIST_Jeon",
  "ProtocolName": "EPI_DGIST_2",
  "PulseSequenceDetails": "%SiemensSeq%\\ep2d_bold",
  "ReceiveCoilActiveElements": "HC1-6",
  "ReceiveCoilName": "HeadNeck_64",
  "ReconMatrixPE": 64,
  "RepetitionTime": 2,
  "SAR": 0.124522,
  "ScanOptions": "FS",
  "ScanningSequence": "EP",
  "SequenceName": "*epfid2d1_64",
  "SequenceVariant": "SK",
  "SeriesDescription": "EPI_DGIST_2",
  "SeriesNumber": 3,
  "ShimSetting": [-9691, -13752, -8110, 334, -166, -176, -90, -236],
  "SliceThickness": 4,
  "SliceTiming": [0.99, 0, 1.055, 0.065, 1.1225, 0.1325, 1.1875, 0.1975, 1.255, 0.265, 1.32, 0.33, 1.385, 0.395, 1.4525, 0.4625, 1.5175, 0.5275, 1.5825, 0.595, 1.65, 0.66, 1.715, 0.725, 1.7825, 0.7925, 1.8475, 0.8575, 1.9125, 0.925],
  "SoftwareVersions": "syngo MR D13C",
  "SpacingBetweenSlices": 4.8,
  "StationName": "AWP45758",
  "TaskName": "asrt",
  "TotalReadoutTime": 0.0390594,
  "TxRefAmp": 313.447,
  "dcmmeta_affine": [
    [-2.9976415634155273, -0.10991852730512619, 0.07266952842473984, 98.93960571289062],
    [-0.11293131113052368, 2.9899818897247314, -0.34781283140182495, -115.78607940673828],
    [0.03730197995901108, 0.21892185509204865, 4.786830425262451, -60.59867477416992],
    [0.0, 0.0, 0.0, 1.0]
],
  "dcmmeta_reorient_transform": [
    [0.0, -1.0, 0.0, 63.0],
    [1.0, 0.0, 0.0, 0.0],
    [0.0, 0.0, 1.0, 0.0],
    [0.0, 0.0, 0.0, 1.0]
],
  "dcmmeta_shape": [64, 64, 30, 364],
  "dcmmeta_slice_dim": 2,
  "dcmmeta_version": 0.6,
  "global": {
    "const": {
      "AcquisitionMatrix": [0, 64, 64, 0],
      "AngioFlag": "N",
      "BitsAllocated": 16,
      "BitsStored": 12,
      "BodyPartExamined": "BRAIN",
      "Columns": 384,
      "EchoNumbers": 1,
      "EchoTime": 30.0,
      "EchoTrainLength": 64,
      "FlipAngle": 90.0,
      "HighBit": 11,
      "ImageOrientationPatient": [0.99921386215461, 0.03764377098171, 0.01243399309775, -0.036639509431, 0.99666059865206, -0.0729739504424],
      "ImagePositionPatient": [-554.05042720206, -569.04887341235, -17.747419475479],
      "ImageType": [
        "ORIGINAL",
        "PRIMARY",
        "M",
        "ND",
        "MOSAIC"
],
      "ImagedNucleus": "1H",
      "ImagingFrequency": 123.200173,
      "InPlanePhaseEncodingDirection": "ROW",
      "MRAcquisitionType": "2D",
      "MagneticFieldStrength": 3.0,
      "Manufacturer": "SIEMENS",
      "ManufacturerModelName": "Skyra",
      "Modality": "MR",
      "NumberOfAverages": 1.0,
      "NumberOfPhaseEncodingSteps": 64,
      "PercentPhaseFieldOfView": 100.0,
      "PercentSampling": 100.0,
      "PerformedProcedureStepStartTime": "135235.010000",
      "PhotometricInterpretation": "MONOCHROME2",
      "PixelBandwidth": 1815.0,
      "PixelRepresentation": 0,
      "PixelSpacing": [3.0, 3.0],
      "ProtocolName": "EPI_DGIST_2",
      "RepetitionTime": 2000.0,
      "Rows": 384,
      "SAR": 0.12452191852603,
      "SamplesPerPixel": 1,
      "ScanOptions": "FS",
      "ScanningSequence": "EP",
      "SequenceName": "*epfid2d1_64",
      "SequenceVariant": "SK",
      "SeriesDescription": "EPI_DGIST_2",
      "SeriesNumber": 3,
      "SeriesTime": "141939.096000",
      "SliceLocation": -50.54454265405,
      "SliceThickness": 4.0,
      "SmallestImagePixelValue": 0,
      "SoftwareVersions": "syngo MR D13C",
      "SpacingBetweenSlices": 4.7999999673878,
      "SpecificCharacterSet": "ISO_IR 100",
      "StudyID": "1",
      "StudyTime": "135234.960000",
      "TimeOfLastCalibration": ["123723.000000", "123723.000000"],
      "TransmitCoilName": "Body",
      "VariableFlipAngleFlag": "N",
      "WindowCenterWidthExplanation": "Algo1",
      "dBdt": 0.0},
    "slices": {}
  },
  "time": {
    "samples": {
      "AcquisitionNumber": [1, 2, 3, 4, 5, 6, 7, 8, 9, 10, 11, 12, 13, 14, 15, 16, 17, 18, 19, 20, 21, 22, 23, 24, 25, 26, 27, 28, 29, 30, 31, 32, 33, 34, 35, 36, 37, 38, 39, 40, 41, 42, 43, 44, 45, 46, 47, 48, 49, 50, 51, 52, 53, 54, 55, 56, 57, 58, 59, 60, 61, 62, 63, 64, 65, 66, 67, 68, 69, 70, 71, 72, 73, 74, 75, 76, 77, 78, 79, 80, 81, 82, 83, 84, 85, 86, 87, 88, 89, 90, 91, 92, 93, 94, 95, 96, 97, 98, 99, 100, 101, 102, 103, 104, 105, 106, 107, 108, 109, 110, 111, 112, 113, 114, 115, 116, 117, 118, 119, 120, 121, 122, 123, 124, 125, 126, 127, 128, 129, 130, 131, 132, 133, 134, 135, 136, 137, 138, 139, 140, 141, 142, 143, 144, 145, 146, 147, 148, 149, 150, 151, 152, 153, 154, 155, 156, 157, 158, 159, 160, 161, 162, 163, 164, 165, 166, 167, 168, 169, 170, 171, 172, 173, 174, 175, 176, 177, 178, 179, 180, 181, 182, 183, 184, 185, 186, 187, 188, 189, 190, 191, 192, 193, 194, 195, 196, 197, 198, 199, 200, 201, 202, 203, 204, 205, 206, 207, 208, 209, 210, 211, 212, 213, 214, 215, 216, 217, 218, 219, 220, 221, 222, 223, 224, 225, 226, 227, 228, 229, 230, 231, 232, 233, 234, 235, 236, 237, 238, 239, 240, 241, 242, 243, 244, 245, 246, 247, 248, 249, 250, 251, 252, 253, 254, 255, 256, 257, 258, 259, 260, 261, 262, 263, 264, 265, 266, 267, 268, 269, 270, 271, 272, 273, 274, 275, 276, 277, 278, 279, 280, 281, 282, 283, 284, 285, 286, 287, 288, 289, 290, 291, 292, 293, 294, 295, 296, 297, 298, 299, 300, 301, 302, 303, 304, 305, 306, 307, 308, 309, 310, 311, 312, 313, 314, 315, 316, 317, 318, 319, 320, 321, 322, 323, 324, 325, 326, 327, 328, 329, 330, 331, 332, 333, 334, 335, 336, 337, 338, 339, 340, 341, 342, 343, 344, 345, 346, 347, 348, 349, 350, 351, 352, 353, 354, 355, 356, 357, 358, 359, 360, 361, 362, 363, 364],
      "AcquisitionTime": ["141855.467500", "141857.467500", "141859.467500", "141901.467500", "141903.467500", "141905.467500", "141907.467500", "141909.467500", "141911.467500", "141913.467500", "141915.467500", "141917.467500", "141919.467500", "141921.467500", "141923.467500", "141925.467500", "141927.467500", "141929.467500", "141931.467500", "141933.467500", "141935.467500", "141937.467500", "141939.467500", "141941.467500", "141943.467500", "141945.467500", "141947.467500", "141949.467500", "141951.467500", "141953.467500", "141955.467500", "141957.467500", "141959.467500", "142001.467500", "142003.467500", "142005.467500", "142007.467500", "142009.467500", "142011.467500", "142013.467500", "142015.467500", "142017.467500", "142019.467500", "142021.467500", "142023.467500", "142025.467500", "142027.467500", "142029.467500", "142031.467500", "142033.467500", "142035.467500", "142037.467500", "142039.467500", "142041.467500", "142043.467500", "142045.467500", "142047.467500", "142049.467500", "142051.467500", "142053.467500", "142055.467500", "142057.467500", "142059.467500", "142101.467500", "142103.467500", "142105.467500", "142107.467500", "142109.467500", "142111.467500", "142113.467500", "142115.467500", "142117.467500", "142119.467500", "142121.467500", "142123.467500", "142125.467500", "142127.467500", "142129.467500", "142131.467500", "142133.467500", "142135.467500", "142137.467500", "142139.467500", "142141.467500", "142143.467500", "142145.467500", "142147.467500", "142149.467500", "142151.467500", "142153.467500", "142155.467500", "142157.467500", "142159.467500", "142201.467500", "142203.467500", "142205.467500", "142207.467500", "142209.467500", "142211.467500", "142213.467500", "142215.467500", "142217.467500", "142219.467500", "142221.467500", "142223.467500", "142225.467500", "142227.467500", "142229.467500", "142231.467500", "142233.467500", "142235.467500", "142237.467500", "142239.467500", "142241.467500", "142243.467500", "142245.467500", "142247.467500", "142249.467500", "142251.467500", "142253.467500", "142255.467500", "142257.467500", "142259.467500", "142301.467500", "142303.467500", "142305.467500", "142307.467500", "142309.467500", "142311.467500", "142313.467500", "142315.467500", "142317.467500", "142319.467500", "142321.467500", "142323.467500", "142325.467500", "142327.467500", "142329.467500", "142331.467500", "142333.467500", "142335.467500", "142337.467500", "142339.467500", "142341.467500", "142343.467500", "142345.467500", "142347.470000", "142349.470000", "142351.470000", "142353.470000", "142355.470000", "142357.470000", "142359.470000", "142401.470000", "142403.470000", "142405.470000", "142407.470000", "142409.470000", "142411.470000", "142413.470000", "142415.470000", "142417.470000", "142419.470000", "142421.470000", "142423.470000", "142425.470000", "142427.470000", "142429.470000", "142431.470000", "142433.470000", "142435.470000", "142437.470000", "142439.470000", "142441.470000", "142443.470000", "142445.470000", "142447.470000", "142449.470000", "142451.470000", "142453.470000", "142455.470000", "142457.470000", "142459.470000", "142501.470000", "142503.470000", "142505.470000", "142507.470000", "142509.470000", "142511.470000", "142513.470000", "142515.470000", "142517.470000", "142519.470000", "142521.470000", "142523.470000", "142525.470000", "142527.470000", "142529.470000", "142531.470000", "142533.470000", "142535.470000", "142537.470000", "142539.470000", "142541.470000", "142543.470000", "142545.470000", "142547.470000", "142549.470000", "142551.470000", "142553.470000", "142555.470000", "142557.470000", "142559.470000", "142601.470000", "142603.470000", "142605.470000", "142607.470000", "142609.470000", "142611.470000", "142613.470000", "142615.470000", "142617.470000", "142619.470000", "142621.470000", "142623.470000", "142625.470000", "142627.470000", "142629.470000", "142631.470000", "142633.470000", "142635.470000", "142637.470000", "142639.470000", "142641.470000", "142643.470000", "142645.470000", "142647.470000", "142649.470000", "142651.470000", "142653.470000", "142655.470000", "142657.470000", "142659.470000", "142701.470000", "142703.470000", "142705.470000", "142707.470000", "142709.470000", "142711.470000", "142713.470000", "142715.470000", "142717.470000", "142719.470000", "142721.470000", "142723.470000", "142725.470000", "142727.470000", "142729.470000", "142731.470000", "142733.470000", "142735.470000", "142737.470000", "142739.470000", "142741.470000", "142743.470000", "142745.470000", "142747.470000", "142749.470000", "142751.470000", "142753.470000", "142755.470000", "142757.470000", "142759.470000", "142801.470000", "142803.470000", "142805.470000", "142807.470000", "142809.470000", "142811.470000", "142813.470000", "142815.470000", "142817.470000", "142819.470000", "142821.470000", "142823.470000", "142825.470000", "142827.470000", "142829.470000", "142831.470000", "142833.470000", "142835.470000", "142837.470000", "142839.470000", "142841.470000", "142843.470000", "142845.470000", "142847.470000", "142849.470000", "142851.470000", "142853.470000", "142855.470000", "142857.470000", "142859.470000", "142901.470000", "142903.470000", "142905.470000", "142907.470000", "142909.470000", "142911.470000", "142913.470000", "142915.470000", "142917.470000", "142919.470000", "142921.470000", "142923.470000", "142925.470000", "142927.470000", "142929.470000", "142931.470000", "142933.470000", "142935.470000", "142937.470000", "142939.470000", "142941.470000", "142943.470000", "142945.470000", "142947.470000", "142949.470000", "142951.470000", "142953.470000", "142955.470000", "142957.470000", "142959.470000", "143001.470000", "143003.470000", "143005.470000", "143007.470000", "143009.470000", "143011.470000", "143013.470000", "143015.470000", "143017.470000", "143019.470000", "143021.470000", "143023.470000", "143025.470000", "143027.470000", "143029.470000", "143031.470000", "143033.470000", "143035.470000", "143037.470000", "143039.470000", "143041.470000", "143043.470000", "143045.470000", "143047.470000", "143049.470000", "143051.470000", "143053.470000", "143055.470000", "143057.470000", "143059.470000", "143101.470000"],
      "ContentTime": ["141939.099000", "141939.101000", "141939.109000", "141939.111000", "141939.114000", "141939.115000", "141939.117000", "141939.119000", "141939.121000", "141939.123000", "141939.125000", "141939.127000", "141939.129000", "141939.131000", "141939.133000", "141939.135000", "141939.138000", "141939.140000", "141939.142000", "141939.150000", "141939.152000", "142019.094000", "142019.096000", "142019.098000", "142019.100000", "142019.102000", "142019.104000", "142019.106000", "142019.108000", "142019.110000", "142019.112000", "142019.114000", "142019.116000", "142019.118000", "142019.120000", "142019.122000", "142019.124000", "142019.126000", "142019.128000", "142019.130000", "142019.132000", "142059.094000", "142059.096000", "142059.099000", "142059.100000", "142059.111000", "142059.113000", "142059.115000", "142059.117000", "142059.119000", "142059.121000", "142059.123000", "142059.125000", "142059.127000", "142059.129000", "142059.131000", "142059.133000", "142059.135000", "142059.138000", "142059.140000", "142059.142000", "142139.094000", "142139.096000", "142139.099000", "142139.101000", "142139.103000", "142139.104000", "142139.107000", "142139.108000", "142139.110000", "142139.112000", "142139.114000", "142139.116000", "142139.118000", "142139.120000", "142139.122000", "142139.124000", "142139.126000", "142139.128000", "142139.130000", "142139.132000", "142159.094000", "142159.096000", "142159.099000", "142159.101000", "142159.103000", "142159.104000", "142159.106000", "142159.108000", "142159.110000", "142159.112000", "142239.094000", "142239.096000", "142239.098000", "142239.100000", "142239.103000", "142239.104000", "142239.106000", "142239.108000", "142239.110000", "142239.112000", "142239.114000", "142239.116000", "142239.118000", "142239.120000", "142239.122000", "142239.124000", "142239.127000", "142239.129000", "142239.131000", "142239.133000", "142319.094000", "142319.096000", "142319.098000", "142319.100000", "142319.102000", "142319.104000", "142319.106000", "142319.108000", "142319.110000", "142319.112000", "142319.114000", "142319.116000", "142319.118000", "142319.120000", "142319.122000", "142319.124000", "142319.126000", "142319.128000", "142319.130000", "142319.132000", "142359.094000", "142359.096000", "142359.098000", "142359.100000", "142359.102000", "142359.104000", "142359.106000", "142359.108000", "142359.110000", "142359.112000", "142359.114000", "142359.116000", "142359.118000", "142359.120000", "142359.122000", "142359.124000", "142359.127000", "142359.129000", "142359.136000", "142359.138000", "142439.094000", "142439.096000", "142439.098000", "142439.100000", "142439.103000", "142439.105000", "142439.106000", "142439.108000", "142439.111000", "142439.112000", "142439.114000", "142439.116000", "142439.118000", "142439.120000", "142439.122000", "142439.124000", "142439.126000", "142439.128000", "142439.130000", "142439.132000", "142519.094000", "142519.096000", "142519.098000", "142519.100000", "142519.102000", "142519.104000", "142519.106000", "142519.108000", "142519.110000", "142519.112000", "142519.114000", "142519.116000", "142519.118000", "142519.120000", "142519.122000", "142519.124000", "142519.126000", "142519.128000", "142519.130000", "142519.138000", "142559.104000", "142559.106000", "142559.108000", "142559.110000", "142559.112000", "142559.114000", "142559.116000", "142559.118000", "142559.120000", "142559.122000", "142559.124000", "142559.126000", "142559.129000", "142559.131000", "142559.132000", "142559.134000", "142559.137000", "142559.139000", "142559.141000", "142559.143000", "142639.094000", "142639.096000", "142639.098000", "142639.100000", "142639.102000", "142639.104000", "142639.106000", "142639.108000", "142639.111000", "142639.112000", "142639.114000", "142639.116000", "142639.119000", "142639.120000", "142639.122000", "142639.124000", "142639.126000", "142639.128000", "142639.130000", "142639.132000", "142719.094000", "142719.096000", "142719.098000", "142719.100000", "142719.103000", "142719.105000", "142719.106000", "142719.108000", "142719.110000", "142719.112000", "142719.114000", "142719.116000", "142719.118000", "142719.120000", "142719.122000", "142719.124000", "142719.126000", "142719.128000", "142719.130000", "142719.132000", "142759.094000", "142759.096000", "142759.098000", "142759.100000", "142759.103000", "142759.105000", "142759.107000", "142759.109000", "142759.111000", "142759.113000", "142759.115000", "142759.117000", "142759.119000", "142759.121000", "142759.123000", "142759.125000", "142759.127000", "142759.129000", "142759.131000", "142759.133000", "142839.094000", "142839.096000", "142839.098000", "142839.100000", "142839.102000", "142839.104000", "142839.106000", "142839.108000", "142839.110000", "142839.112000", "142839.114000", "142839.116000", "142839.118000", "142839.120000", "142839.122000", "142839.124000", "142839.126000", "142839.128000", "142839.130000", "142839.132000", "142919.094000", "142919.096000", "142919.098000", "142919.100000", "142919.102000", "142919.104000", "142919.106000", "142919.108000", "142919.110000", "142919.112000", "142919.114000", "142919.116000", "142919.118000", "142919.120000", "142919.122000", "142919.124000", "142919.126000", "142919.128000", "142919.134000", "142919.136000", "142959.094000", "142959.096000", "142959.098000", "142959.100000", "142959.103000", "142959.104000", "142959.106000", "142959.108000", "142959.111000", "142959.112000", "142959.114000", "142959.116000", "142959.118000", "142959.120000", "142959.122000", "142959.124000", "142959.126000", "142959.128000", "142959.131000", "142959.133000", "143039.095000", "143039.097000", "143039.099000", "143039.101000", "143039.104000", "143039.105000", "143039.107000", "143039.109000", "143039.111000", "143039.113000", "143039.115000", "143039.117000", "143039.119000", "143039.121000", "143039.123000", "143039.125000", "143039.127000", "143039.129000", "143039.131000", "143039.133000", "143103.188000", "143103.190000", "143103.192000", "143103.194000", "143103.196000", "143103.198000", "143103.200000", "143103.202000", "143103.204000", "143103.206000", "143103.208000", "143103.210000", "143103.212000"],
      "InstanceCreationTime": ["141939.099000", "141939.101000", "141939.109000", "141939.111000", "141939.114000", "141939.115000", "141939.117000", "141939.119000", "141939.121000", "141939.123000", "141939.125000", "141939.127000", "141939.129000", "141939.131000", "141939.133000", "141939.135000", "141939.138000", "141939.140000", "141939.142000", "141939.150000", "141939.152000", "142019.094000", "142019.096000", "142019.098000", "142019.100000", "142019.102000", "142019.104000", "142019.106000", "142019.108000", "142019.110000", "142019.112000", "142019.114000", "142019.116000", "142019.118000", "142019.120000", "142019.122000", "142019.124000", "142019.126000", "142019.128000", "142019.130000", "142019.132000", "142059.094000", "142059.096000", "142059.099000", "142059.100000", "142059.111000", "142059.113000", "142059.115000", "142059.117000", "142059.119000", "142059.121000", "142059.123000", "142059.125000", "142059.127000", "142059.129000", "142059.131000", "142059.133000", "142059.135000", "142059.138000", "142059.140000", "142059.142000", "142139.094000", "142139.096000", "142139.099000", "142139.101000", "142139.103000", "142139.104000", "142139.107000", "142139.108000", "142139.110000", "142139.112000", "142139.114000", "142139.116000", "142139.118000", "142139.120000", "142139.122000", "142139.124000", "142139.126000", "142139.128000", "142139.130000", "142139.132000", "142159.094000", "142159.096000", "142159.099000", "142159.101000", "142159.103000", "142159.104000", "142159.106000", "142159.108000", "142159.110000", "142159.112000", "142239.094000", "142239.096000", "142239.098000", "142239.100000", "142239.103000", "142239.104000", "142239.106000", "142239.108000", "142239.110000", "142239.112000", "142239.114000", "142239.116000", "142239.118000", "142239.120000", "142239.122000", "142239.124000", "142239.127000", "142239.129000", "142239.131000", "142239.133000", "142319.094000", "142319.096000", "142319.098000", "142319.100000", "142319.102000", "142319.104000", "142319.106000", "142319.108000", "142319.110000", "142319.112000", "142319.114000", "142319.116000", "142319.118000", "142319.120000", "142319.122000", "142319.124000", "142319.126000", "142319.128000", "142319.130000", "142319.132000", "142359.094000", "142359.096000", "142359.098000", "142359.100000", "142359.102000", "142359.104000", "142359.106000", "142359.108000", "142359.110000", "142359.112000", "142359.114000", "142359.116000", "142359.118000", "142359.120000", "142359.122000", "142359.124000", "142359.127000", "142359.129000", "142359.136000", "142359.138000", "142439.094000", "142439.096000", "142439.098000", "142439.100000", "142439.103000", "142439.105000", "142439.106000", "142439.108000", "142439.111000", "142439.112000", "142439.114000", "142439.116000", "142439.118000", "142439.120000", "142439.122000", "142439.124000", "142439.126000", "142439.128000", "142439.130000", "142439.132000", "142519.094000", "142519.096000", "142519.098000", "142519.100000", "142519.102000", "142519.104000", "142519.106000", "142519.108000", "142519.110000", "142519.112000", "142519.114000", "142519.116000", "142519.118000", "142519.120000", "142519.122000", "142519.124000", "142519.126000", "142519.128000", "142519.130000", "142519.138000", "142559.104000", "142559.106000", "142559.108000", "142559.110000", "142559.112000", "142559.114000", "142559.116000", "142559.118000", "142559.120000", "142559.122000", "142559.124000", "142559.126000", "142559.129000", "142559.131000", "142559.132000", "142559.134000", "142559.137000", "142559.139000", "142559.141000", "142559.143000", "142639.094000", "142639.096000", "142639.098000", "142639.100000", "142639.102000", "142639.104000", "142639.106000", "142639.108000", "142639.111000", "142639.112000", "142639.114000", "142639.116000", "142639.119000", "142639.120000", "142639.122000", "142639.124000", "142639.126000", "142639.128000", "142639.130000", "142639.132000", "142719.094000", "142719.096000", "142719.098000", "142719.100000", "142719.103000", "142719.105000", "142719.106000", "142719.108000", "142719.110000", "142719.112000", "142719.114000", "142719.116000", "142719.118000", "142719.120000", "142719.122000", "142719.124000", "142719.126000", "142719.128000", "142719.130000", "142719.132000", "142759.094000", "142759.096000", "142759.098000", "142759.100000", "142759.103000", "142759.105000", "142759.107000", "142759.109000", "142759.111000", "142759.113000", "142759.115000", "142759.117000", "142759.119000", "142759.121000", "142759.123000", "142759.125000", "142759.127000", "142759.129000", "142759.131000", "142759.133000", "142839.094000", "142839.096000", "142839.098000", "142839.100000", "142839.102000", "142839.104000", "142839.106000", "142839.108000", "142839.110000", "142839.112000", "142839.114000", "142839.116000", "142839.118000", "142839.120000", "142839.122000", "142839.124000", "142839.126000", "142839.128000", "142839.130000", "142839.132000", "142919.094000", "142919.096000", "142919.098000", "142919.100000", "142919.102000", "142919.104000", "142919.106000", "142919.108000", "142919.110000", "142919.112000", "142919.114000", "142919.116000", "142919.118000", "142919.120000", "142919.122000", "142919.124000", "142919.126000", "142919.128000", "142919.134000", "142919.136000", "142959.094000", "142959.096000", "142959.098000", "142959.100000", "142959.103000", "142959.104000", "142959.106000", "142959.108000", "142959.111000", "142959.112000", "142959.114000", "142959.116000", "142959.118000", "142959.120000", "142959.122000", "142959.124000", "142959.126000", "142959.128000", "142959.131000", "142959.133000", "143039.095000", "143039.097000", "143039.099000", "143039.101000", "143039.104000", "143039.105000", "143039.107000", "143039.109000", "143039.111000", "143039.113000", "143039.115000", "143039.117000", "143039.119000", "143039.121000", "143039.123000", "143039.125000", "143039.127000", "143039.129000", "143039.131000", "143039.133000", "143103.188000", "143103.190000", "143103.192000", "143103.194000", "143103.196000", "143103.198000", "143103.200000", "143103.202000", "143103.204000", "143103.206000", "143103.208000", "143103.210000", "143103.212000"],
      "InstanceNumber": [1, 2, 3, 4, 5, 6, 7, 8, 9, 10, 11, 12, 13, 14, 15, 16, 17, 18, 19, 20, 21, 22, 23, 24, 25, 26, 27, 28, 29, 30, 31, 32, 33, 34, 35, 36, 37, 38, 39, 40, 41, 42, 43, 44, 45, 46, 47, 48, 49, 50, 51, 52, 53, 54, 55, 56, 57, 58, 59, 60, 61, 62, 63, 64, 65, 66, 67, 68, 69, 70, 71, 72, 73, 74, 75, 76, 77, 78, 79, 80, 81, 82, 83, 84, 85, 86, 87, 88, 89, 90, 91, 92, 93, 94, 95, 96, 97, 98, 99, 100, 101, 102, 103, 104, 105, 106, 107, 108, 109, 110, 111, 112, 113, 114, 115, 116, 117, 118, 119, 120, 121, 122, 123, 124, 125, 126, 127, 128, 129, 130, 131, 132, 133, 134, 135, 136, 137, 138, 139, 140, 141, 142, 143, 144, 145, 146, 147, 148, 149, 150, 151, 152, 153, 154, 155, 156, 157, 158, 159, 160, 161, 162, 163, 164, 165, 166, 167, 168, 169, 170, 171, 172, 173, 174, 175, 176, 177, 178, 179, 180, 181, 182, 183, 184, 185, 186, 187, 188, 189, 190, 191, 192, 193, 194, 195, 196, 197, 198, 199, 200, 201, 202, 203, 204, 205, 206, 207, 208, 209, 210, 211, 212, 213, 214, 215, 216, 217, 218, 219, 220, 221, 222, 223, 224, 225, 226, 227, 228, 229, 230, 231, 232, 233, 234, 235, 236, 237, 238, 239, 240, 241, 242, 243, 244, 245, 246, 247, 248, 249, 250, 251, 252, 253, 254, 255, 256, 257, 258, 259, 260, 261, 262, 263, 264, 265, 266, 267, 268, 269, 270, 271, 272, 273, 274, 275, 276, 277, 278, 279, 280, 281, 282, 283, 284, 285, 286, 287, 288, 289, 290, 291, 292, 293, 294, 295, 296, 297, 298, 299, 300, 301, 302, 303, 304, 305, 306, 307, 308, 309, 310, 311, 312, 313, 314, 315, 316, 317, 318, 319, 320, 321, 322, 323, 324, 325, 326, 327, 328, 329, 330, 331, 332, 333, 334, 335, 336, 337, 338, 339, 340, 341, 342, 343, 344, 345, 346, 347, 348, 349, 350, 351, 352, 353, 354, 355, 356, 357, 358, 359, 360, 361, 362, 363, 364],
      "LargestImagePixelValue": [3391, 3349, 3247, 3258, 3258, 3243, 3244, 3285, 3246, 3240, 3259, 3239, 3240, 3254, 3223, 3227, 3226, 3246, 3238, 3235, 3242, 3245, 3224, 3253, 3246, 3247, 3246, 3245, 3234, 3241, 3263, 3242, 3204, 3207, 3280, 3199, 3213, 3192, 3205, 3212, 3215, 3226, 3225, 3216, 3217, 3198, 3218, 3213, 3195, 3214, 3218, 3237, 3250, 3229, 3238, 3237, 3211, 3220, 3213, 3210, 3250, 3252, 3240, 3225, 3242, 3254, 3241, 3219, 3237, 3237, 3241, 3234, 3240, 3223, 3214, 3226, 3223, 3217, 3217, 3208, 3189, 3204, 3206, 3184, 3189, 3203, 3210, 3264, 3231, 3229, 3231, 3243, 3218, 3177, 3110, 3156, 3173, 3156, 3171, 3189, 3176, 3184, 3161, 3172, 3181, 3171, 3175, 3170, 3182, 3183, 3180, 3164, 3165, 3146, 3168, 3153, 3142, 3157, 3151, 3154, 3117, 3182, 3145, 3141, 3114, 3130, 3136, 3118, 3127, 3115, 3127, 3130, 3139, 3149, 3112, 3103, 3106, 3088, 3129, 3128, 3110, 3122, 3108, 3105, 3110, 3102, 3096, 3106, 3086, 3099, 3097, 3182, 3240, 3162, 3134, 3117, 3101, 3107, 3127, 3124, 3091, 3097, 3099, 3077, 3097, 3077, 3098, 3079, 3058, 3063, 3074, 3075, 3079, 3082, 3073, 3092, 3083, 3099, 3084, 3102, 3099, 3119, 3072, 3046, 3080, 3041, 3058, 3046, 3036, 3049, 3004, 3002, 3021, 3018, 3043, 3054, 3025, 3053, 3025, 3032, 2997, 2979, 2988, 3001, 3042, 3033, 3041, 2990, 2975, 3004, 3105, 3033, 3043, 2990, 2988, 2972, 2988, 3019, 3022, 3012, 3023, 3000, 3014, 3048, 3018, 3041, 3061, 3042, 3031, 3008, 2993, 2996, 2993, 2996, 2994, 2991, 2989, 3000, 2984, 2990, 3025, 2996, 3047, 3032, 3035, 3003, 2996, 2996, 3019, 3011, 2995, 2993, 2990, 2971, 2978, 3001, 2983, 3003, 2973, 2973, 2974, 2983, 2975, 2967, 2975, 2983, 2988, 2984, 2982, 2979, 3009, 3066, 3078, 3029, 3028, 3030, 3031, 3043, 3067, 3060, 3024, 3055, 3038, 3005, 3017, 3033, 3037, 3041, 3035, 3043, 3034, 3018, 3020, 3017, 3018, 3013, 3002, 3009, 3010, 3007, 3006, 3022, 3020, 3001, 2996, 2992, 2992, 3001, 3001, 3000, 3000, 3008, 2997, 2999, 2987, 3008, 2997, 3003, 2997, 3004, 3005, 3011, 2996, 2994, 3016, 2991, 2991, 3001, 2998, 2992, 3017, 2996, 3015, 3013, 3024, 3034, 2992, 2997, 2982, 2967, 2961, 2981, 2981, 2992, 2992, 2998, 2978, 2979, 3010, 3028, 3013, 2986, 2996, 2994, 3000, 2996, 3005, 3022, 3002, 3016, 3008, 2961, 2979, 3052],
