{
  "AcquisitionMatrixPE": 64,
  "AcquisitionNumber": 1,
  "AcquisitionTime": "14:00:3.550000",
  "BandwidthPerPixelPhaseEncode": 25.202,
  "BaseResolution": 64,
  "BodyPartExamined": "BRAIN",
  "ConsistencyInfo": "N4_VD13C_LATEST_20121124",
  "ConversionSoftware": "dcm2niix",
  "ConversionSoftwareVersion": "v1.0.20201102",
  "DerivedVendorReportedEchoSpacing": 0.00061999,
  "DeviceSerialNumber": "45758",
  "DwellTime": 4.3e-06,
  "EchoTime": 0.03,
  "EchoTrainLength": 64,
  "EffectiveEchoSpacing": 0.00061999,
  "FlipAngle": 90,
  "ImageOrientationPatientDICOM": [0.999214, 0.0376438, 0.012434, -0.0366395, 0.996661, -0.072974],
  "ImageType": [
    "ORIGINAL",
    "PRIMARY",
    "M",
    "ND",
    "MOSAIC"
],
  "ImagingFrequency": 123.2,
  "InPlanePhaseEncodingDirectionDICOM": "ROW",
  "InstitutionAddress": "Street StreetNo,City /652E4B/,District,KR,ZIP",
  "InstitutionName": "DGMIF",
  "InstitutionalDepartmentName": "Department",
  "MRAcquisitionType": "2D",
  "MagneticFieldStrength": 3,
  "Manufacturer": "Siemens",
  "ManufacturersModelName": "Skyra",
  "Modality": "MR",
  "PartialFourier": 1,
  "PatientPosition": "HFS",
  "PercentPhaseFOV": 100,
  "PercentSampling": 100,
  "PhaseEncodingDirection": "i",
  "PhaseEncodingSteps": 64,
  "PhaseResolution": 1,
  "PixelBandwidth": 1815,
  "ProcedureStepDescription": "DGMIF^DGIST_Jeon",
  "ProtocolName": "EPI_DGIST_1",
  "PulseSequenceDetails": "%SiemensSeq%\\ep2d_bold",
  "ReceiveCoilActiveElements": "HC1-6",
  "ReceiveCoilName": "HeadNeck_64",
  "ReconMatrixPE": 64,
  "RepetitionTime": 2,
  "SAR": 0.124522,
  "ScanOptions": "FS",
  "ScanningSequence": "EP",
  "SequenceName": "*epfid2d1_64",
  "SequenceVariant": "SK",
  "SeriesDescription": "EPI_DGIST_1",
  "SeriesNumber": 2,
  "ShimSetting": [-9691, -13752, -8110, 334, -166, -176, -90, -236],
  "SliceThickness": 4,
  "SliceTiming": [0.99, 0, 1.0575, 0.0675, 1.1225, 0.1325, 1.1875, 0.2, 1.255, 0.265, 1.32, 0.33, 1.3875, 0.3975, 1.4525, 0.4625, 1.5175, 0.53, 1.585, 0.595, 1.65, 0.66, 1.7175, 0.7275, 1.7825, 0.7925, 1.8475, 0.8575, 1.915, 0.925],
  "SoftwareVersions": "syngo MR D13C",
  "SpacingBetweenSlices": 4.8,
  "StationName": "AWP45758",
  "TaskName": "asrt",
  "TotalReadoutTime": 0.0390594,
  "TxRefAmp": 313.447,
  "dcmmeta_affine": [
    [-2.9976415634155273, -0.10991852730512619, 0.07266952842473984, 98.93960571289062],
    [-0.11293131113052368, 2.9899818897247314, -0.34781283140182495, -115.78607940673828],
    [0.03730197995901108, 0.21892185509204865, 4.786830425262451, -60.59867477416992],
    [0.0, 0.0, 0.0, 1.0]
],
  "dcmmeta_reorient_transform": [
    [0.0, -1.0, 0.0, 63.0],
    [1.0, 0.0, 0.0, 0.0],
    [0.0, 0.0, 1.0, 0.0],
    [0.0, 0.0, 0.0, 1.0]
],
  "dcmmeta_shape": [64, 64, 30, 514],
  "dcmmeta_slice_dim": 2,
  "dcmmeta_version": 0.6,
  "global": {
    "const": {
      "AcquisitionMatrix": [0, 64, 64, 0],
      "AngioFlag": "N",
      "BitsAllocated": 16,
      "BitsStored": 12,
      "BodyPartExamined": "BRAIN",
      "Columns": 384,
      "EchoNumbers": 1,
      "EchoTime": 30.0,
      "EchoTrainLength": 64,
      "FlipAngle": 90.0,
      "HighBit": 11,
      "ImageOrientationPatient": [0.99921386215461, 0.03764377098171, 0.01243399309775, -0.036639509431, 0.99666059865206, -0.0729739504424],
      "ImagePositionPatient": [-554.05042720206, -569.04887341235, -17.747419475479],
      "ImageType": [
        "ORIGINAL",
        "PRIMARY",
        "M",
        "ND",
        "MOSAIC"
],
      "ImagedNucleus": "1H",
      "ImagingFrequency": 123.200161,
      "InPlanePhaseEncodingDirection": "ROW",
      "MRAcquisitionType": "2D",
      "MagneticFieldStrength": 3.0,
      "Manufacturer": "SIEMENS",
      "ManufacturerModelName": "Skyra",
      "Modality": "MR",
      "NumberOfAverages": 1.0,
      "NumberOfPhaseEncodingSteps": 64,
      "PercentPhaseFieldOfView": 100.0,
      "PercentSampling": 100.0,
      "PerformedProcedureStepStartTime": "135235.010000",
      "PhotometricInterpretation": "MONOCHROME2",
      "PixelBandwidth": 1815.0,
      "PixelRepresentation": 0,
      "PixelSpacing": [3.0, 3.0],
      "ProtocolName": "EPI_DGIST_1",
      "RepetitionTime": 2000.0,
      "Rows": 384,
      "SAR": 0.12452191852603,
      "SamplesPerPixel": 1,
      "ScanOptions": "FS",
      "ScanningSequence": "EP",
      "SequenceName": "*epfid2d1_64",
      "SequenceVariant": "SK",
      "SeriesDescription": "EPI_DGIST_1",
      "SeriesNumber": 2,
      "SeriesTime": "140049.489000",
      "SliceLocation": -50.54454265405,
      "SliceThickness": 4.0,
      "SmallestImagePixelValue": 0,
      "SoftwareVersions": "syngo MR D13C",
      "SpacingBetweenSlices": 4.7999999673878,
      "SpecificCharacterSet": "ISO_IR 100",
      "StudyID": "1",
      "StudyTime": "135234.960000",
      "TimeOfLastCalibration": ["123723.000000", "123723.000000"],
      "TransmitCoilName": "Body",
      "VariableFlipAngleFlag": "N",
      "WindowCenterWidthExplanation": "Algo1",
      "dBdt": 0.0},
    "slices": {}
  },
  "time": {
    "samples": {
      "AcquisitionNumber": [1, 2, 3, 4, 5, 6, 7, 8, 9, 10, 11, 12, 13, 14, 15, 16, 17, 18, 19, 20, 21, 22, 23, 24, 25, 26, 27, 28, 29, 30, 31, 32, 33, 34, 35, 36, 37, 38, 39, 40, 41, 42, 43, 44, 45, 46, 47, 48, 49, 50, 51, 52, 53, 54, 55, 56, 57, 58, 59, 60, 61, 62, 63, 64, 65, 66, 67, 68, 69, 70, 71, 72, 73, 74, 75, 76, 77, 78, 79, 80, 81, 82, 83, 84, 85, 86, 87, 88, 89, 90, 91, 92, 93, 94, 95, 96, 97, 98, 99, 100, 101, 102, 103, 104, 105, 106, 107, 108, 109, 110, 111, 112, 113, 114, 115, 116, 117, 118, 119, 120, 121, 122, 123, 124, 125, 126, 127, 128, 129, 130, 131, 132, 133, 134, 135, 136, 137, 138, 139, 140, 141, 142, 143, 144, 145, 146, 147, 148, 149, 150, 151, 152, 153, 154, 155, 156, 157, 158, 159, 160, 161, 162, 163, 164, 165, 166, 167, 168, 169, 170, 171, 172, 173, 174, 175, 176, 177, 178, 179, 180, 181, 182, 183, 184, 185, 186, 187, 188, 189, 190, 191, 192, 193, 194, 195, 196, 197, 198, 199, 200, 201, 202, 203, 204, 205, 206, 207, 208, 209, 210, 211, 212, 213, 214, 215, 216, 217, 218, 219, 220, 221, 222, 223, 224, 225, 226, 227, 228, 229, 230, 231, 232, 233, 234, 235, 236, 237, 238, 239, 240, 241, 242, 243, 244, 245, 246, 247, 248, 249, 250, 251, 252, 253, 254, 255, 256, 257, 258, 259, 260, 261, 262, 263, 264, 265, 266, 267, 268, 269, 270, 271, 272, 273, 274, 275, 276, 277, 278, 279, 280, 281, 282, 283, 284, 285, 286, 287, 288, 289, 290, 291, 292, 293, 294, 295, 296, 297, 298, 299, 300, 301, 302, 303, 304, 305, 306, 307, 308, 309, 310, 311, 312, 313, 314, 315, 316, 317, 318, 319, 320, 321, 322, 323, 324, 325, 326, 327, 328, 329, 330, 331, 332, 333, 334, 335, 336, 337, 338, 339, 340, 341, 342, 343, 344, 345, 346, 347, 348, 349, 350, 351, 352, 353, 354, 355, 356, 357, 358, 359, 360, 361, 362, 363, 364, 365, 366, 367, 368, 369, 370, 371, 372, 373, 374, 375, 376, 377, 378, 379, 380, 381, 382, 383, 384, 385, 386, 387, 388, 389, 390, 391, 392, 393, 394, 395, 396, 397, 398, 399, 400, 401, 402, 403, 404, 405, 406, 407, 408, 409, 410, 411, 412, 413, 414, 415, 416, 417, 418, 419, 420, 421, 422, 423, 424, 425, 426, 427, 428, 429, 430, 431, 432, 433, 434, 435, 436, 437, 438, 439, 440, 441, 442, 443, 444, 445, 446, 447, 448, 449, 450, 451, 452, 453, 454, 455, 456, 457, 458, 459, 460, 461, 462, 463, 464, 465, 466, 467, 468, 469, 470, 471, 472, 473, 474, 475, 476, 477, 478, 479, 480, 481, 482, 483, 484, 485, 486, 487, 488, 489, 490, 491, 492, 493, 494, 495, 496, 497, 498, 499, 500, 501, 502, 503, 504, 505, 506, 507, 508, 509, 510, 511, 512, 513, 514],
      "AcquisitionTime": ["140003.550000", "140005.550000", "140007.550000", "140009.550000", "140011.550000", "140013.550000", "140015.550000", "140017.550000", "140019.550000", "140021.550000", "140023.550000", "140025.550000", "140027.550000", "140029.550000", "140031.550000", "140033.550000", "140035.550000", "140037.550000", "140039.550000", "140041.550000", "140043.550000", "140045.550000", "140047.550000", "140049.550000", "140051.550000", "140053.550000", "140055.550000", "140057.550000", "140059.550000", "140101.550000", "140103.550000", "140105.550000", "140107.550000", "140109.550000", "140111.550000", "140113.550000", "140115.550000", "140117.550000", "140119.550000", "140121.550000", "140123.550000", "140125.550000", "140127.550000", "140129.550000", "140131.550000", "140133.550000", "140135.550000", "140137.550000", "140139.550000", "140141.550000", "140143.550000", "140145.550000", "140147.550000", "140149.552500", "140151.552500", "140153.552500", "140155.552500", "140157.552500", "140159.552500", "140201.552500", "140203.552500", "140205.552500", "140207.552500", "140209.552500", "140211.552500", "140213.552500", "140215.552500", "140217.552500", "140219.552500", "140221.552500", "140223.552500", "140225.552500", "140227.552500", "140229.552500", "140231.552500", "140233.552500", "140235.552500", "140237.552500", "140239.552500", "140241.552500", "140243.552500", "140245.552500", "140247.552500", "140249.552500", "140251.552500", "140253.552500", "140255.552500", "140257.552500", "140259.552500", "140301.552500", "140303.552500", "140305.552500", "140307.552500", "140309.552500", "140311.552500", "140313.552500", "140315.552500", "140317.552500", "140319.552500", "140321.552500", "140323.552500", "140325.552500", "140327.552500", "140329.552500", "140331.552500", "140333.552500", "140335.552500", "140337.552500", "140339.552500", "140341.552500", "140343.552500", "140345.552500", "140347.552500", "140349.552500", "140351.552500", "140353.552500", "140355.552500", "140357.552500", "140359.552500", "140401.552500", "140403.552500", "140405.552500", "140407.552500", "140409.552500", "140411.552500", "140413.552500", "140415.552500", "140417.552500", "140419.552500", "140421.552500", "140423.552500", "140425.552500", "140427.552500", "140429.552500", "140431.552500", "140433.552500", "140435.552500", "140437.552500", "140439.552500", "140441.552500", "140443.552500", "140445.552500", "140447.552500", "140449.552500", "140451.552500", "140453.552500", "140455.552500", "140457.552500", "140459.552500", "140501.552500", "140503.552500", "140505.552500", "140507.552500", "140509.552500", "140511.552500", "140513.552500", "140515.552500", "140517.552500", "140519.552500", "140521.552500", "140523.552500", "140525.552500", "140527.552500", "140529.552500", "140531.552500", "140533.552500", "140535.552500", "140537.552500", "140539.552500", "140541.552500", "140543.552500", "140545.552500", "140547.552500", "140549.552500", "140551.552500", "140553.552500", "140555.552500", "140557.552500", "140559.552500", "140601.552500", "140603.552500", "140605.552500", "140607.552500", "140609.552500", "140611.552500", "140613.552500", "140615.552500", "140617.552500", "140619.552500", "140621.552500", "140623.552500", "140625.552500", "140627.552500", "140629.552500", "140631.552500", "140633.552500", "140635.552500", "140637.552500", "140639.552500", "140641.552500", "140643.552500", "140645.552500", "140647.552500", "140649.552500", "140651.552500", "140653.552500", "140655.552500", "140657.552500", "140659.552500", "140701.552500", "140703.552500", "140705.552500", "140707.552500", "140709.552500", "140711.552500", "140713.552500", "140715.552500", "140717.552500", "140719.552500", "140721.552500", "140723.552500", "140725.552500", "140727.552500", "140729.552500", "140731.552500", "140733.552500", "140735.552500", "140737.552500", "140739.552500", "140741.552500", "140743.552500", "140745.552500", "140747.552500", "140749.552500", "140751.552500", "140753.552500", "140755.552500", "140757.552500", "140759.552500", "140801.552500", "140803.552500", "140805.552500", "140807.552500", "140809.552500", "140811.552500", "140813.552500", "140815.552500", "140817.552500", "140819.552500", "140821.552500", "140823.552500", "140825.552500", "140827.552500", "140829.552500", "140831.552500", "140833.552500", "140835.552500", "140837.552500", "140839.552500", "140841.552500", "140843.552500", "140845.552500", "140847.552500", "140849.552500", "140851.552500", "140853.552500", "140855.552500", "140857.552500", "140859.552500", "140901.552500", "140903.552500", "140905.552500", "140907.552500", "140909.552500", "140911.552500", "140913.552500", "140915.552500", "140917.552500", "140919.552500", "140921.552500", "140923.552500", "140925.552500", "140927.552500", "140929.552500", "140931.552500", "140933.552500", "140935.552500", "140937.552500", "140939.552500", "140941.552500", "140943.552500", "140945.552500", "140947.552500", "140949.552500", "140951.552500", "140953.552500", "140955.552500", "140957.552500", "140959.552500", "141001.552500", "141003.552500", "141005.552500", "141007.552500", "141009.555000", "141011.555000", "141013.555000", "141015.555000", "141017.555000", "141019.555000", "141021.555000", "141023.555000", "141025.555000", "141027.555000", "141029.555000", "141031.555000", "141033.555000", "141035.555000", "141037.555000", "141039.555000", "141041.555000", "141043.555000", "141045.555000", "141047.555000", "141049.555000", "141051.555000", "141053.555000", "141055.555000", "141057.555000", "141059.555000", "141101.555000", "141103.555000", "141105.555000", "141107.555000", "141109.555000", "141111.555000", "141113.555000", "141115.555000", "141117.555000", "141119.555000", "141121.555000", "141123.555000", "141125.555000", "141127.555000", "141129.555000", "141131.555000", "141133.555000", "141135.555000", "141137.555000", "141139.555000", "141141.555000", "141143.555000", "141145.555000", "141147.555000", "141149.555000", "141151.555000", "141153.555000", "141155.555000", "141157.555000", "141159.555000", "141201.555000", "141203.555000", "141205.555000", "141207.555000", "141209.555000", "141211.555000", "141213.555000", "141215.555000", "141217.555000", "141219.555000", "141221.555000", "141223.555000", "141225.555000", "141227.555000", "141229.555000", "141231.555000", "141233.555000", "141235.555000", "141237.555000", "141239.555000", "141241.555000", "141243.555000", "141245.555000", "141247.555000", "141249.555000", "141251.555000", "141253.555000", "141255.555000", "141257.555000", "141259.555000", "141301.555000", "141303.555000", "141305.555000", "141307.555000", "141309.555000", "141311.555000", "141313.555000", "141315.555000", "141317.555000", "141319.555000", "141321.555000", "141323.555000", "141325.555000", "141327.555000", "141329.555000", "141331.555000", "141333.555000", "141335.555000", "141337.555000", "141339.555000", "141341.555000", "141343.555000", "141345.555000", "141347.555000", "141349.555000", "141351.555000", "141353.555000", "141355.555000", "141357.555000", "141359.555000", "141401.555000", "141403.555000", "141405.555000", "141407.555000", "141409.555000", "141411.555000", "141413.555000", "141415.555000", "141417.555000", "141419.555000", "141421.555000", "141423.555000", "141425.555000", "141427.555000", "141429.555000", "141431.555000", "141433.555000", "141435.555000", "141437.555000", "141439.555000", "141441.555000", "141443.555000", "141445.555000", "141447.555000", "141449.555000", "141451.555000", "141453.555000", "141455.555000", "141457.555000", "141459.555000", "141501.555000", "141503.555000", "141505.555000", "141507.555000", "141509.555000", "141511.555000", "141513.555000", "141515.555000", "141517.555000", "141519.555000", "141521.555000", "141523.555000", "141525.555000", "141527.555000", "141529.555000", "141531.555000", "141533.555000", "141535.555000", "141537.555000", "141539.555000", "141541.555000", "141543.555000", "141545.555000", "141547.555000", "141549.555000", "141551.555000", "141553.555000", "141555.555000", "141557.555000", "141559.555000", "141601.555000", "141603.555000", "141605.555000", "141607.555000", "141609.555000", "141611.555000", "141613.555000", "141615.555000", "141617.555000", "141619.555000", "141621.555000", "141623.555000", "141625.555000", "141627.555000", "141629.555000", "141631.555000", "141633.555000", "141635.555000", "141637.555000", "141639.555000", "141641.555000", "141643.555000", "141645.555000", "141647.555000", "141649.555000", "141651.555000", "141653.555000", "141655.555000", "141657.555000", "141659.555000", "141701.555000", "141703.555000", "141705.555000", "141707.555000", "141709.555000"],
      "ContentTime": ["140049.492000", "140049.494000", "140049.496000", "140049.498000", "140049.500000", "140049.508000", "140049.510000", "140049.512000", "140049.514000", "140049.516000", "140049.518000", "140049.520000", "140049.522000", "140049.524000", "140049.526000", "140049.528000", "140049.530000", "140049.532000", "140049.534000", "140049.536000", "140049.538000", "140049.540000", "140049.542000", "140129.486000", "140129.489000", "140129.491000", "140129.493000", "140129.494000", "140129.497000", "140129.499000", "140129.500000", "140129.502000", "140129.504000", "140129.506000", "140129.508000", "140129.510000", "140129.512000", "140129.514000", "140129.516000", "140129.518000", "140129.520000", "140129.522000", "140129.524000", "140209.487000", "140209.490000", "140209.492000", "140209.494000", "140209.496000", "140209.505000", "140209.507000", "140209.509000", "140209.511000", "140209.513000", "140209.515000", "140209.517000", "140209.519000", "140209.521000", "140209.523000", "140209.525000", "140209.527000", "140209.529000", "140209.531000", "140209.533000", "140249.487000", "140249.489000", "140249.491000", "140249.493000", "140249.495000", "140249.497000", "140249.499000", "140249.501000", "140249.503000", "140249.505000", "140249.507000", "140249.509000", "140249.511000", "140249.513000", "140249.515000", "140249.517000", "140249.519000", "140249.521000", "140249.523000", "140249.525000", "140329.487000", "140329.490000", "140329.492000", "140329.493000", "140329.495000", "140329.497000", "140329.499000", "140329.501000", "140329.503000", "140329.505000", "140329.507000", "140329.509000", "140329.511000", "140329.513000", "140329.515000", "140329.517000", "140329.519000", "140329.521000", "140329.523000", "140329.525000", "140409.487000", "140409.489000", "140409.491000", "140409.493000", "140409.495000", "140409.497000", "140409.499000", "140409.501000", "140409.503000", "140409.506000", "140409.508000", "140409.510000", "140409.511000", "140409.514000", "140409.516000", "140409.517000", "140409.519000", "140409.522000", "140409.523000", "140409.525000", "140449.487000", "140449.489000", "140449.491000", "140449.493000", "140449.495000", "140449.498000", "140449.500000", "140449.501000", "140449.503000", "140449.506000", "140449.507000", "140449.509000", "140449.511000", "140449.513000", "140449.515000", "140449.517000", "140449.519000", "140449.522000", "140449.524000", "140449.525000", "140529.487000", "140529.490000", "140529.492000", "140529.494000", "140529.496000", "140529.498000", "140529.500000", "140529.501000", "140529.503000", "140529.506000", "140529.507000", "140529.509000", "140529.511000", "140529.514000", "140529.516000", "140529.517000", "140529.519000", "140529.522000", "140529.523000", "140529.525000", "140609.486000", "140609.488000", "140609.490000", "140609.492000", "140609.494000", "140609.496000", "140609.498000", "140609.500000", "140609.502000", "140609.504000", "140609.506000", "140609.508000", "140609.510000", "140609.513000", "140609.515000", "140609.516000", "140609.518000", "140609.521000", "140609.523000", "140609.525000", "140649.487000", "140649.489000", "140649.491000", "140649.493000", "140649.495000", "140649.498000", "140649.500000", "140649.501000", "140649.511000", "140649.513000", "140649.515000", "140649.517000", "140649.518000", "140649.521000", "140649.523000", "140649.525000", "140649.527000", "140649.529000", "140649.531000", "140649.533000", "140729.487000", "140729.490000", "140729.491000", "140729.493000", "140729.495000", "140729.497000", "140729.499000", "140729.501000", "140729.503000", "140729.506000", "140729.508000", "140729.510000", "140729.512000", "140729.514000", "140729.516000", "140729.518000", "140729.520000", "140729.522000", "140729.524000", "140729.526000", "140809.487000", "140809.489000", "140809.491000", "140809.493000", "140809.495000", "140809.497000", "140809.499000", "140809.501000", "140809.503000", "140809.505000", "140809.507000", "140809.509000", "140809.511000", "140809.514000", "140809.516000", "140809.518000", "140809.520000", "140809.522000", "140809.524000", "140809.526000", "140849.487000", "140849.489000", "140849.491000", "140849.493000", "140849.495000", "140849.497000", "140849.499000", "140849.501000", "140849.503000", "140849.505000", "140849.507000", "140849.509000", "140849.511000", "140849.514000", "140849.516000", "140849.518000", "140849.520000", "140849.522000", "140849.524000", "140849.526000", "140929.487000", "140929.489000", "140929.491000", "140929.493000", "140929.495000", "140929.497000", "140929.499000", "140929.501000", "140929.503000", "140929.505000", "140929.507000", "140929.509000", "140929.511000", "140929.514000", "140929.516000", "140929.518000", "140929.519000", "140929.522000", "140929.524000", "140929.526000", "141009.487000", "141009.489000", "141009.491000", "141009.493000", "141009.495000", "141009.497000", "141009.499000", "141009.501000", "141009.503000", "141009.506000", "141009.508000", "141009.510000", "141009.512000", "141009.514000", "141009.516000", "141009.518000", "141009.520000", "141009.522000", "141009.524000", "141009.526000", "141049.486000", "141049.488000", "141049.490000", "141049.492000", "141049.494000", "141049.497000", "141049.499000", "141049.501000", "141049.503000", "141049.505000", "141049.507000", "141049.509000", "141049.511000", "141049.513000", "141049.515000", "141049.517000", "141049.519000", "141049.521000", "141049.523000", "141049.525000", "141129.487000", "141129.489000", "141129.491000", "141129.493000", "141129.495000", "141129.498000", "141129.500000", "141129.501000", "141129.503000", "141129.505000", "141129.507000", "141129.509000", "141129.511000", "141129.514000", "141129.516000", "141129.518000", "141129.520000", "141129.522000", "141129.524000", "141129.526000", "141209.487000", "141209.490000", "141209.492000", "141209.493000", "141209.495000", "141209.498000", "141209.500000", "141209.501000", "141209.503000", "141209.506000", "141209.507000", "141209.509000", "141209.511000", "141209.514000", "141209.516000", "141209.518000", "141209.520000", "141209.522000", "141209.524000", "141209.526000", "141249.487000", "141249.490000", "141249.492000", "141249.493000", "141249.495000", "141249.498000", "141249.500000", "141249.504000", "141249.506000", "141249.508000", "141249.510000", "141249.512000", "141249.514000", "141249.517000", "141249.519000", "141249.521000", "141249.522000", "141249.525000", "141249.527000", "141249.529000", "141329.487000", "141329.489000", "141329.491000", "141329.493000", "141329.495000", "141329.497000", "141329.499000", "141329.501000", "141329.503000", "141329.506000", "141329.508000", "141329.510000", "141329.511000", "141329.514000", "141329.516000", "141329.518000", "141329.520000", "141329.522000", "141329.524000", "141329.526000", "141409.487000", "141409.489000", "141409.491000", "141409.493000", "141409.495000", "141409.497000", "141409.499000", "141409.501000", "141409.503000", "141409.505000", "141409.507000", "141409.509000", "141409.511000", "141409.514000", "141409.515000", "141409.517000", "141409.519000", "141409.522000", "141409.524000", "141409.526000", "141449.487000", "141449.489000", "141449.491000", "141449.493000", "141449.495000", "141449.498000", "141449.499000", "141449.501000", "141449.503000", "141449.505000", "141449.507000", "141449.509000", "141449.511000", "141449.514000", "141449.516000", "141449.518000", "141449.520000", "141449.522000", "141449.524000", "141449.526000", "141529.487000", "141529.490000", "141529.492000", "141529.508000", "141529.510000", "141529.512000", "141529.514000", "141529.516000", "141529.518000", "141529.520000", "141529.522000", "141529.524000", "141529.525000", "141529.528000", "141529.529000", "141529.531000", "141529.533000", "141529.535000", "141529.537000", "141529.539000", "141609.487000", "141609.489000", "141609.491000", "141609.493000", "141609.495000", "141609.497000", "141609.499000", "141609.501000", "141609.503000", "141609.506000", "141609.508000", "141609.509000", "141609.511000", "141609.514000", "141609.516000", "141609.518000", "141609.520000", "141609.522000", "141609.524000", "141609.526000", "141649.487000", "141649.490000", "141649.492000", "141649.493000", "141649.495000", "141649.498000", "141649.500000", "141649.501000", "141649.503000", "141649.506000", "141649.508000", "141649.509000", "141649.511000", "141649.514000", "141649.515000", "141649.517000", "141649.519000", "141649.521000", "141649.523000", "141649.525000", "141711.380000", "141711.382000", "141711.384000", "141711.386000", "141711.388000", "141711.390000", "141711.392000", "141711.394000", "141711.396000", "141711.398000", "141711.400000"],
