{
  "AcquisitionMatrixPE": 64,
  "AcquisitionNumber": 1,
  "AcquisitionTime": "09:40:19.570000",
  "BandwidthPerPixelPhaseEncode": 25.202,
  "BaseResolution": 64,
  "BodyPartExamined": "BRAIN",
  "ConsistencyInfo": "N4_VD13C_LATEST_20121124",
  "ConversionSoftware": "dcm2niix",
  "ConversionSoftwareVersion": "v1.0.20201102",
  "DerivedVendorReportedEchoSpacing": 0.00061999,
  "DeviceSerialNumber": "45758",
  "DwellTime": 4.3e-06,
  "EchoTime": 0.03,
  "EchoTrainLength": 64,
  "EffectiveEchoSpacing": 0.00061999,
  "FlipAngle": 90,
  "ImageOrientationPatientDICOM": [0.99992, 0.00131466, -0.0126166, -0.00174519, 0.999414, -0.0341738],
  "ImageType": [
    "ORIGINAL",
    "PRIMARY",
    "M",
    "ND",
    "MOSAIC"
],
  "ImagingFrequency": 123.2,
  "InPlanePhaseEncodingDirectionDICOM": "ROW",
  "InstitutionAddress": "Street StreetNo,City /652E4B/,District,KR,ZIP",
  "InstitutionName": "DGMIF",
  "InstitutionalDepartmentName": "Department",
  "MRAcquisitionType": "2D",
  "MagneticFieldStrength": 3,
  "Manufacturer": "Siemens",
  "ManufacturersModelName": "Skyra",
  "Modality": "MR",
  "PartialFourier": 1,
  "PatientPosition": "HFS",
  "PercentPhaseFOV": 100,
  "PercentSampling": 100,
  "PhaseEncodingDirection": "i",
  "PhaseEncodingSteps": 64,
  "PhaseResolution": 1,
  "PixelBandwidth": 1815,
  "ProcedureStepDescription": "DGMIF^DGIST_Jeon",
  "ProtocolName": "EPI_DGIST_1",
  "PulseSequenceDetails": "%SiemensSeq%\\ep2d_bold",
  "ReceiveCoilActiveElements": "HC1-7",
  "ReceiveCoilName": "HeadNeck_64",
  "ReconMatrixPE": 64,
  "RepetitionTime": 2,
  "SAR": 0.100114,
  "ScanOptions": "FS",
  "ScanningSequence": "EP",
  "SequenceName": "*epfid2d1_64",
  "SequenceVariant": "SK",
  "SeriesDescription": "EPI_DGIST_1",
  "SeriesNumber": 2,
  "ShimSetting": [-9720, -13644, -8115, 282, -302, -133, -290, -162],
  "SliceThickness": 4,
  "SliceTiming": [0.99, 0, 1.055, 0.065, 1.1225, 0.1325, 1.1875, 0.1975, 1.2525, 0.265, 1.32, 0.33, 1.385, 0.395, 1.4525, 0.4625, 1.5175, 0.5275, 1.5825, 0.595, 1.65, 0.66, 1.715, 0.725, 1.7825, 0.7925, 1.8475, 0.8575, 1.9125, 0.9225],
  "SoftwareVersions": "syngo MR D13C",
  "SpacingBetweenSlices": 4.8,
  "StationName": "AWP45758",
  "TaskName": "asrt",
  "TotalReadoutTime": 0.0390594,
  "TxRefAmp": 296.385,
  "dcmmeta_affine": [
    [-2.999758720397949, -0.005235571879893541, -0.06030861288309097, 95.28504180908203],
    [-0.003943989519029856, 2.9982430934906006, -0.16412654519081116, -118.28590393066406],
    [-0.037849828600883484, 0.10252128541469574, 4.79681396484375, -54.94788360595703],
    [0.0, 0.0, 0.0, 1.0]
],
  "dcmmeta_reorient_transform": [
    [0.0, -1.0, 0.0, 63.0],
    [1.0, 0.0, 0.0, 0.0],
    [0.0, 0.0, 1.0, 0.0],
    [0.0, 0.0, 0.0, 1.0]
],
  "dcmmeta_shape": [64, 64, 30, 514],
  "dcmmeta_slice_dim": 2,
  "dcmmeta_version": 0.6,
  "global": {
    "const": {
      "AcquisitionMatrix": [0, 64, 64, 0],
      "AngioFlag": "N",
      "BitsAllocated": 16,
      "BitsStored": 12,
      "BodyPartExamined": "BRAIN",
      "Columns": 384,
      "EchoNumbers": 1,
      "EchoTime": 30.0,
      "EchoTrainLength": 64,
      "FlipAngle": 90.0,
      "HighBit": 11,
      "ImageOrientationPatient": [0.99991954316928, 0.00131466311815, -0.0126166100448, -0.0017451906557, 0.99941438271539, -0.0341737608581],
      "ImagePositionPatient": [-574.07888826378, -550.95335287021, -26.029665244217],
      "ImageType": [
        "ORIGINAL",
        "PRIMARY",
        "M",
        "ND",
        "MOSAIC"
],
      "ImagedNucleus": "1H",
      "ImagingFrequency": 123.200111,
      "InPlanePhaseEncodingDirection": "ROW",
      "MRAcquisitionType": "2D",
      "MagneticFieldStrength": 3.0,
      "Manufacturer": "SIEMENS",
      "ManufacturerModelName": "Skyra",
      "Modality": "MR",
      "NumberOfAverages": 1.0,
      "NumberOfPhaseEncodingSteps": 64,
      "PercentPhaseFieldOfView": 100.0,
      "PercentSampling": 100.0,
      "PerformedProcedureStepStartTime": "093545.478000",
      "PhotometricInterpretation": "MONOCHROME2",
      "PixelBandwidth": 1815.0,
      "PixelRepresentation": 0,
      "PixelSpacing": [3.0, 3.0],
      "ProtocolName": "EPI_DGIST_1",
      "RepetitionTime": 2000.0,
      "Rows": 384,
      "SAR": 0.10011391509152,
      "SamplesPerPixel": 1,
      "ScanOptions": "FS",
      "ScanningSequence": "EP",
      "SequenceName": "*epfid2d1_64",
      "SequenceVariant": "SK",
      "SeriesDescription": "EPI_DGIST_1",
      "SeriesNumber": 2,
      "SeriesTime": "094107.194000",
      "SliceLocation": -52.06404913387,
      "SliceThickness": 4.0,
      "SmallestImagePixelValue": 0,
      "SoftwareVersions": "syngo MR D13C",
      "SpacingBetweenSlices": 4.7999998822889,
      "SpecificCharacterSet": "ISO_IR 100",
      "StudyID": "1",
      "StudyTime": "093545.396000",
      "TimeOfLastCalibration": ["123723.000000", "123723.000000"],
      "TransmitCoilName": "Body",
      "VariableFlipAngleFlag": "N",
      "WindowCenterWidthExplanation": "Algo1",
      "dBdt": 0.0},
    "slices": {}
  },
  "time": {
    "samples": {
      "AcquisitionNumber": [1, 2, 3, 4, 5, 6, 7, 8, 9, 10, 11, 12, 13, 14, 15, 16, 17, 18, 19, 20, 21, 22, 23, 24, 25, 26, 27, 28, 29, 30, 31, 32, 33, 34, 35, 36, 37, 38, 39, 40, 41, 42, 43, 44, 45, 46, 47, 48, 49, 50, 51, 52, 53, 54, 55, 56, 57, 58, 59, 60, 61, 62, 63, 64, 65, 66, 67, 68, 69, 70, 71, 72, 73, 74, 75, 76, 77, 78, 79, 80, 81, 82, 83, 84, 85, 86, 87, 88, 89, 90, 91, 92, 93, 94, 95, 96, 97, 98, 99, 100, 101, 102, 103, 104, 105, 106, 107, 108, 109, 110, 111, 112, 113, 114, 115, 116, 117, 118, 119, 120, 121, 122, 123, 124, 125, 126, 127, 128, 129, 130, 131, 132, 133, 134, 135, 136, 137, 138, 139, 140, 141, 142, 143, 144, 145, 146, 147, 148, 149, 150, 151, 152, 153, 154, 155, 156, 157, 158, 159, 160, 161, 162, 163, 164, 165, 166, 167, 168, 169, 170, 171, 172, 173, 174, 175, 176, 177, 178, 179, 180, 181, 182, 183, 184, 185, 186, 187, 188, 189, 190, 191, 192, 193, 194, 195, 196, 197, 198, 199, 200, 201, 202, 203, 204, 205, 206, 207, 208, 209, 210, 211, 212, 213, 214, 215, 216, 217, 218, 219, 220, 221, 222, 223, 224, 225, 226, 227, 228, 229, 230, 231, 232, 233, 234, 235, 236, 237, 238, 239, 240, 241, 242, 243, 244, 245, 246, 247, 248, 249, 250, 251, 252, 253, 254, 255, 256, 257, 258, 259, 260, 261, 262, 263, 264, 265, 266, 267, 268, 269, 270, 271, 272, 273, 274, 275, 276, 277, 278, 279, 280, 281, 282, 283, 284, 285, 286, 287, 288, 289, 290, 291, 292, 293, 294, 295, 296, 297, 298, 299, 300, 301, 302, 303, 304, 305, 306, 307, 308, 309, 310, 311, 312, 313, 314, 315, 316, 317, 318, 319, 320, 321, 322, 323, 324, 325, 326, 327, 328, 329, 330, 331, 332, 333, 334, 335, 336, 337, 338, 339, 340, 341, 342, 343, 344, 345, 346, 347, 348, 349, 350, 351, 352, 353, 354, 355, 356, 357, 358, 359, 360, 361, 362, 363, 364, 365, 366, 367, 368, 369, 370, 371, 372, 373, 374, 375, 376, 377, 378, 379, 380, 381, 382, 383, 384, 385, 386, 387, 388, 389, 390, 391, 392, 393, 394, 395, 396, 397, 398, 399, 400, 401, 402, 403, 404, 405, 406, 407, 408, 409, 410, 411, 412, 413, 414, 415, 416, 417, 418, 419, 420, 421, 422, 423, 424, 425, 426, 427, 428, 429, 430, 431, 432, 433, 434, 435, 436, 437, 438, 439, 440, 441, 442, 443, 444, 445, 446, 447, 448, 449, 450, 451, 452, 453, 454, 455, 456, 457, 458, 459, 460, 461, 462, 463, 464, 465, 466, 467, 468, 469, 470, 471, 472, 473, 474, 475, 476, 477, 478, 479, 480, 481, 482, 483, 484, 485, 486, 487, 488, 489, 490, 491, 492, 493, 494, 495, 496, 497, 498, 499, 500, 501, 502, 503, 504, 505, 506, 507, 508, 509, 510, 511, 512, 513, 514],
      "AcquisitionTime": ["094019.570000", "094021.570000", "094023.570000", "094025.570000", "094027.570000", "094029.570000", "094031.570000", "094033.570000", "094035.570000", "094037.570000", "094039.570000", "094041.570000", "094043.570000", "094045.570000", "094047.570000", "094049.570000", "094051.570000", "094053.570000", "094055.570000", "094057.570000", "094059.570000", "094101.570000", "094103.570000", "094105.570000", "094107.570000", "094109.570000", "094111.570000", "094113.570000", "094115.570000", "094117.570000", "094119.570000", "094121.570000", "094123.570000", "094125.570000", "094127.570000", "094129.570000", "094131.570000", "094133.570000", "094135.570000", "094137.570000", "094139.570000", "094141.570000", "094143.570000", "094145.570000", "094147.570000", "094149.570000", "094151.570000", "094153.570000", "094155.570000", "094157.570000", "094159.570000", "094201.570000", "094203.570000", "094205.570000", "094207.570000", "094209.570000", "094211.570000", "094213.570000", "094215.570000", "094217.570000", "094219.570000", "094221.570000", "094223.570000", "094225.570000", "094227.570000", "094229.570000", "094231.570000", "094233.570000", "094235.570000", "094237.570000", "094239.570000", "094241.570000", "094243.570000", "094245.570000", "094247.570000", "094249.570000", "094251.570000", "094253.570000", "094255.570000", "094257.570000", "094259.570000", "094301.570000", "094303.570000", "094305.570000", "094307.570000", "094309.570000", "094311.570000", "094313.570000", "094315.570000", "094317.570000", "094319.570000", "094321.570000", "094323.570000", "094325.570000", "094327.570000", "094329.570000", "094331.570000", "094333.570000", "094335.570000", "094337.570000", "094339.570000", "094341.570000", "094343.570000", "094345.570000", "094347.570000", "094349.570000", "094351.570000", "094353.570000", "094355.570000", "094357.570000", "094359.570000", "094401.570000", "094403.570000", "094405.570000", "094407.570000", "094409.570000", "094411.570000", "094413.570000", "094415.570000", "094417.570000", "094419.570000", "094421.570000", "094423.570000", "094425.570000", "094427.570000", "094429.570000", "094431.570000", "094433.570000", "094435.570000", "094437.570000", "094439.570000", "094441.570000", "094443.570000", "094445.570000", "094447.570000", "094449.570000", "094451.570000", "094453.570000", "094455.570000", "094457.570000", "094459.570000", "094501.570000", "094503.570000", "094505.570000", "094507.570000", "094509.570000", "094511.570000", "094513.570000", "094515.570000", "094517.570000", "094519.570000", "094521.570000", "094523.570000", "094525.570000", "094527.572500", "094529.572500", "094531.572500", "094533.572500", "094535.572500", "094537.572500", "094539.572500", "094541.572500", "094543.572500", "094545.572500", "094547.572500", "094549.572500", "094551.572500", "094553.572500", "094555.572500", "094557.572500", "094559.572500", "094601.572500", "094603.572500", "094605.572500", "094607.572500", "094609.572500", "094611.572500", "094613.572500", "094615.572500", "094617.572500", "094619.572500", "094621.572500", "094623.572500", "094625.572500", "094627.572500", "094629.572500", "094631.572500", "094633.572500", "094635.572500", "094637.572500", "094639.572500", "094641.572500", "094643.572500", "094645.572500", "094647.572500", "094649.572500", "094651.572500", "094653.572500", "094655.572500", "094657.572500", "094659.572500", "094701.572500", "094703.572500", "094705.572500", "094707.572500", "094709.572500", "094711.572500", "094713.572500", "094715.572500", "094717.572500", "094719.572500", "094721.572500", "094723.572500", "094725.572500", "094727.572500", "094729.572500", "094731.572500", "094733.572500", "094735.572500", "094737.572500", "094739.572500", "094741.572500", "094743.572500", "094745.572500", "094747.572500", "094749.572500", "094751.572500", "094753.572500", "094755.572500", "094757.572500", "094759.572500", "094801.572500", "094803.572500", "094805.572500", "094807.572500", "094809.572500", "094811.572500", "094813.572500", "094815.572500", "094817.572500", "094819.572500", "094821.572500", "094823.572500", "094825.572500", "094827.572500", "094829.572500", "094831.572500", "094833.572500", "094835.572500", "094837.572500", "094839.572500", "094841.572500", "094843.572500", "094845.572500", "094847.572500", "094849.572500", "094851.572500", "094853.572500", "094855.572500", "094857.572500", "094859.572500", "094901.572500", "094903.572500", "094905.572500", "094907.572500", "094909.572500", "094911.572500", "094913.572500", "094915.572500", "094917.572500", "094919.572500", "094921.572500", "094923.572500", "094925.572500", "094927.572500", "094929.572500", "094931.572500", "094933.572500", "094935.572500", "094937.572500", "094939.572500", "094941.572500", "094943.572500", "094945.572500", "094947.572500", "094949.572500", "094951.572500", "094953.572500", "094955.572500", "094957.572500", "094959.572500", "095001.572500", "095003.572500", "095005.572500", "095007.572500", "095009.572500", "095011.572500", "095013.572500", "095015.572500", "095017.572500", "095019.572500", "095021.572500", "095023.572500", "095025.572500", "095027.572500", "095029.572500", "095031.572500", "095033.572500", "095035.572500", "095037.572500", "095039.572500", "095041.572500", "095043.572500", "095045.572500", "095047.572500", "095049.572500", "095051.572500", "095053.572500", "095055.572500", "095057.572500", "095059.572500", "095101.572500", "095103.572500", "095105.572500", "095107.572500", "095109.572500", "095111.572500", "095113.572500", "095115.572500", "095117.572500", "095119.572500", "095121.572500", "095123.572500", "095125.572500", "095127.572500", "095129.572500", "095131.572500", "095133.572500", "095135.572500", "095137.572500", "095139.572500", "095141.572500", "095143.572500", "095145.572500", "095147.572500", "095149.572500", "095151.572500", "095153.572500", "095155.572500", "095157.572500", "095159.572500", "095201.572500", "095203.572500", "095205.572500", "095207.572500", "095209.572500", "095211.572500", "095213.572500", "095215.572500", "095217.572500", "095219.572500", "095221.572500", "095223.572500", "095225.572500", "095227.572500", "095229.572500", "095231.572500", "095233.572500", "095235.572500", "095237.572500", "095239.572500", "095241.572500", "095243.572500", "095245.572500", "095247.572500", "095249.572500", "095251.572500", "095253.572500", "095255.572500", "095257.572500", "095259.572500", "095301.572500", "095303.572500", "095305.572500", "095307.572500", "095309.572500", "095311.572500", "095313.572500", "095315.572500", "095317.572500", "095319.572500", "095321.572500", "095323.572500", "095325.572500", "095327.572500", "095329.572500", "095331.572500", "095333.572500", "095335.572500", "095337.572500", "095339.572500", "095341.572500", "095343.572500", "095345.572500", "095347.575000", "095349.575000", "095351.575000", "095353.575000", "095355.575000", "095357.575000", "095359.575000", "095401.575000", "095403.575000", "095405.575000", "095407.575000", "095409.575000", "095411.575000", "095413.575000", "095415.575000", "095417.575000", "095419.575000", "095421.575000", "095423.575000", "095425.575000", "095427.575000", "095429.575000", "095431.575000", "095433.575000", "095435.575000", "095437.575000", "095439.575000", "095441.575000", "095443.575000", "095445.575000", "095447.575000", "095449.575000", "095451.575000", "095453.575000", "095455.575000", "095457.575000", "095459.575000", "095501.575000", "095503.575000", "095505.575000", "095507.575000", "095509.575000", "095511.575000", "095513.575000", "095515.575000", "095517.575000", "095519.575000", "095521.575000", "095523.575000", "095525.575000", "095527.575000", "095529.575000", "095531.575000", "095533.575000", "095535.575000", "095537.575000", "095539.575000", "095541.575000", "095543.575000", "095545.575000", "095547.575000", "095549.575000", "095551.575000", "095553.575000", "095555.575000", "095557.575000", "095559.575000", "095601.575000", "095603.575000", "095605.575000", "095607.575000", "095609.575000", "095611.575000", "095613.575000", "095615.575000", "095617.575000", "095619.575000", "095621.575000", "095623.575000", "095625.575000", "095627.575000", "095629.575000", "095631.575000", "095633.575000", "095635.575000", "095637.575000", "095639.575000", "095641.575000", "095643.575000", "095645.575000", "095647.575000", "095649.575000", "095651.575000", "095653.575000", "095655.575000", "095657.575000", "095659.575000", "095701.575000", "095703.575000", "095705.575000", "095707.575000", "095709.575000", "095711.575000", "095713.575000", "095715.575000", "095717.575000", "095719.575000", "095721.575000", "095723.575000", "095725.575000"],
      "ContentTime": ["094107.199000", "094107.202000", "094107.204000", "094107.206000", "094107.214000", "094107.216000", "094107.220000", "094107.222000", "094107.224000", "094107.226000", "094107.228000", "094107.230000", "094107.232000", "094107.234000", "094107.236000", "094107.238000", "094107.240000", "094107.242000", "094107.244000", "094107.246000", "094107.248000", "094107.250000", "094107.252000", "094147.192000", "094147.194000", "094147.196000", "094147.198000", "094147.200000", "094147.202000", "094147.204000", "094147.206000", "094147.208000", "094147.210000", "094147.212000", "094147.214000", "094147.216000", "094147.217000", "094147.219000", "094147.221000", "094147.223000", "094147.225000", "094147.227000", "094147.229000", "094227.192000", "094227.195000", "094227.197000", "094227.198000", "094227.200000", "094227.202000", "094227.204000", "094227.206000", "094227.208000", "094227.210000", "094227.212000", "094227.214000", "094227.216000", "094227.218000", "094227.220000", "094227.222000", "094227.224000", "094227.226000", "094227.227000", "094227.229000", "094307.192000", "094307.194000", "094307.196000", "094307.198000", "094307.200000", "094307.202000", "094307.204000", "094307.206000", "094307.208000", "094307.210000", "094307.212000", "094307.214000", "094307.216000", "094307.218000", "094307.219000", "094307.221000", "094307.223000", "094307.225000", "094307.227000", "094307.229000", "094347.192000", "094347.194000", "094347.196000", "094347.198000", "094347.208000", "094347.210000", "094347.212000", "094347.214000", "094347.216000", "094347.217000", "094347.219000", "094347.221000", "094347.223000", "094347.234000", "094347.236000", "094347.237000", "094347.239000", "094347.241000", "094347.243000", "094347.245000", "094347.247000", "094447.192000", "094447.194000", "094447.196000", "094447.198000", "094447.200000", "094447.202000", "094447.204000", "094447.206000", "094447.208000", "094447.210000", "094447.212000", "094447.214000", "094447.216000", "094447.218000", "094447.220000", "094447.222000", "094447.223000", "094447.225000", "094447.227000", "094447.229000", "094447.231000", "094447.233000", "094447.235000", "094447.237000", "094447.239000", "094447.241000", "094447.243000", "094447.245000", "094447.247000", "094527.192000", "094527.194000", "094527.196000", "094527.198000", "094527.200000", "094527.202000", "094527.204000", "094527.206000", "094527.208000", "094527.210000", "094527.212000", "094527.218000", "094527.220000", "094527.222000", "094527.224000", "094527.226000", "094527.228000", "094527.230000", "094527.232000", "094527.234000", "094607.192000", "094607.194000", "094607.196000", "094607.198000", "094607.200000", "094607.202000", "094607.204000", "094607.206000", "094607.208000", "094607.210000", "094607.212000", "094607.214000", "094607.216000", "094607.223000", "094607.225000", "094607.227000", "094607.229000", "094607.231000", "094607.233000", "094607.235000", "094647.191000", "094647.193000", "094647.195000", "094647.198000", "094647.200000", "094647.202000", "094647.204000", "094647.206000", "094647.208000", "094647.209000", "094647.211000", "094647.213000", "094647.215000", "094647.217000", "094647.219000", "094647.221000", "094647.223000", "094647.225000", "094647.227000", "094647.229000", "094727.192000", "094727.195000", "094727.197000", "094727.199000", "094727.201000", "094727.203000", "094727.205000", "094727.207000", "094727.209000", "094727.211000", "094727.213000", "094727.215000", "094727.217000", "094727.219000", "094727.221000", "094727.223000", "094727.225000", "094727.226000", "094727.228000", "094727.231000", "094807.192000", "094807.194000", "094807.196000", "094807.198000", "094807.210000", "094807.212000", "094807.214000", "094807.216000", "094807.218000", "094807.220000", "094807.222000", "094807.224000", "094807.226000", "094807.227000", "094807.229000", "094807.231000", "094807.233000", "094807.235000", "094807.237000", "094807.239000", "094847.197000", "094847.200000", "094847.202000", "094847.204000", "094847.206000", "094847.208000", "094847.210000", "094847.212000", "094847.214000", "094847.216000", "094847.218000", "094847.220000", "094847.222000", "094847.224000", "094847.226000", "094847.228000", "094847.230000", "094847.232000", "094847.234000", "094847.236000", "094927.192000", "094927.194000", "094927.196000", "094927.198000", "094927.200000", "094927.202000", "094927.204000", "094927.206000", "094927.208000", "094927.210000", "094927.212000", "094927.214000", "094927.216000", "094927.218000", "094927.220000", "094927.222000", "094927.224000", "094927.226000", "094927.227000", "094927.229000", "095007.192000", "095007.194000", "095007.196000", "095007.198000", "095007.200000", "095007.202000", "095007.204000", "095007.206000", "095007.208000", "095007.210000", "095007.212000", "095007.214000", "095007.216000", "095007.218000", "095007.220000", "095007.222000", "095007.224000", "095007.226000", "095007.228000", "095007.230000", "095047.192000", "095047.194000", "095047.196000", "095047.198000", "095047.200000", "095047.202000", "095047.204000", "095047.206000", "095047.208000", "095047.210000", "095047.212000", "095047.214000", "095047.216000", "095047.218000", "095047.220000", "095047.222000", "095047.224000", "095047.226000", "095047.228000", "095047.230000", "095127.191000", "095127.193000", "095127.195000", "095127.197000", "095127.199000", "095127.208000", "095127.209000", "095127.211000", "095127.213000", "095127.215000", "095127.217000", "095127.219000", "095127.221000", "095127.223000", "095127.225000", "095127.227000", "095127.229000", "095127.231000", "095127.233000", "095127.235000", "095147.192000", "095147.194000", "095147.196000", "095147.198000", "095147.200000", "095147.202000", "095147.204000", "095147.206000", "095147.208000", "095147.210000", "095147.212000", "095247.192000", "095247.194000", "095247.196000", "095247.198000", "095247.200000", "095247.202000", "095247.204000", "095247.206000", "095247.208000", "095247.210000", "095247.212000", "095247.214000", "095247.216000", "095247.218000", "095247.220000", "095247.222000", "095247.224000", "095247.226000", "095247.228000", "095247.230000", "095247.232000", "095247.234000", "095247.236000", "095247.237000", "095247.239000", "095247.241000", "095247.243000", "095247.245000", "095247.247000", "095327.192000", "095327.194000", "095327.196000", "095327.198000", "095327.200000", "095327.202000", "095327.204000", "095327.206000", "095327.208000", "095327.210000", "095327.212000", "095327.214000", "095327.216000", "095327.218000", "095327.220000", "095327.222000", "095327.224000", "095327.226000", "095327.228000", "095327.230000", "095407.192000", "095407.194000", "095407.196000", "095407.198000", "095407.200000", "095407.202000", "095407.204000", "095407.206000", "095407.208000", "095407.210000", "095407.223000", "095407.225000", "095407.227000", "095407.229000", "095407.231000", "095407.233000", "095407.235000", "095407.237000", "095407.239000", "095407.240000", "095447.192000", "095447.194000", "095447.196000", "095447.198000", "095447.200000", "095447.202000", "095447.204000", "095447.206000", "095447.208000", "095447.210000", "095447.212000", "095447.214000", "095447.216000", "095447.218000", "095447.220000", "095447.222000", "095447.224000", "095447.226000", "095447.228000", "095447.230000", "095527.192000", "095527.194000", "095527.196000", "095527.198000", "095527.200000", "095527.202000", "095527.204000", "095527.206000", "095527.208000", "095527.210000", "095527.212000", "095527.214000", "095527.216000", "095527.218000", "095527.220000", "095527.222000", "095527.224000", "095527.226000", "095527.228000", "095527.230000", "095607.191000", "095607.193000", "095607.195000", "095607.197000", "095607.199000", "095607.201000", "095607.203000", "095607.205000", "095607.207000", "095607.209000", "095607.211000", "095607.213000", "095607.215000", "095607.217000", "095607.219000", "095607.221000", "095607.223000", "095607.225000", "095607.227000", "095607.229000", "095647.192000", "095647.194000", "095647.196000", "095647.198000", "095647.200000", "095647.202000", "095647.204000", "095647.206000", "095647.208000", "095647.210000", "095647.212000", "095647.214000", "095647.216000", "095647.218000", "095647.220000", "095647.221000", "095647.237000", "095647.239000", "095647.241000", "095647.243000", "095727.192000", "095727.195000", "095727.197000", "095727.199000", "095727.200000", "095727.202000", "095727.204000", "095727.206000", "095727.208000", "095727.210000", "095727.212000", "095727.214000", "095727.216000", "095727.218000", "095727.222000", "095727.224000", "095727.226000", "095727.229000", "095727.231000", "095727.233000", "095727.235000"],
