{
  "AcquisitionMatrixPE": 64,
  "AcquisitionNumber": 1,
  "AcquisitionTime": "09:59:33.257500",
  "BandwidthPerPixelPhaseEncode": 25.202,
  "BaseResolution": 64,
  "BodyPartExamined": "BRAIN",
  "ConsistencyInfo": "N4_VD13C_LATEST_20121124",
  "ConversionSoftware": "dcm2niix",
  "ConversionSoftwareVersion": "v1.0.20201102",
  "DerivedVendorReportedEchoSpacing": 0.00061999,
  "DeviceSerialNumber": "45758",
  "DwellTime": 4.3e-06,
  "EchoTime": 0.03,
  "EchoTrainLength": 64,
  "EffectiveEchoSpacing": 0.00061999,
  "FlipAngle": 90,
  "ImageOrientationPatientDICOM": [0.99992, 0.00131466, -0.0126166, -0.00174519, 0.999414, -0.0341738],
  "ImageType": [
    "ORIGINAL",
    "PRIMARY",
    "M",
    "ND",
    "MOSAIC"
],
  "ImagingFrequency": 123.2,
  "InPlanePhaseEncodingDirectionDICOM": "ROW",
  "InstitutionAddress": "Street StreetNo,City /652E4B/,District,KR,ZIP",
  "InstitutionName": "DGMIF",
  "InstitutionalDepartmentName": "Department",
  "MRAcquisitionType": "2D",
  "MagneticFieldStrength": 3,
  "Manufacturer": "Siemens",
  "ManufacturersModelName": "Skyra",
  "Modality": "MR",
  "PartialFourier": 1,
  "PatientPosition": "HFS",
  "PercentPhaseFOV": 100,
  "PercentSampling": 100,
  "PhaseEncodingDirection": "i",
  "PhaseEncodingSteps": 64,
  "PhaseResolution": 1,
  "PixelBandwidth": 1815,
  "ProcedureStepDescription": "DGMIF^DGIST_Jeon",
  "ProtocolName": "EPI_DGIST_2",
  "PulseSequenceDetails": "%SiemensSeq%\\ep2d_bold",
  "ReceiveCoilActiveElements": "HC1-6",
  "ReceiveCoilName": "HeadNeck_64",
  "ReconMatrixPE": 64,
  "RepetitionTime": 2,
  "SAR": 0.100114,
  "ScanOptions": "FS",
  "ScanningSequence": "EP",
  "SequenceName": "*epfid2d1_64",
  "SequenceVariant": "SK",
  "SeriesDescription": "EPI_DGIST_2",
  "SeriesNumber": 3,
  "ShimSetting": [-9711, -13608, -8083, 287, -248, 60, -352, -169],
  "SliceThickness": 4,
  "SliceTiming": [0.99, 0, 1.055, 0.065, 1.12, 0.13, 1.1875, 0.1975, 1.2525, 0.2625, 1.32, 0.33, 1.385, 0.395, 1.45, 0.46, 1.5175, 0.5275, 1.5825, 0.5925, 1.6475, 0.66, 1.715, 0.725, 1.78, 0.79, 1.8475, 0.8575, 1.9125, 0.9225],
  "SoftwareVersions": "syngo MR D13C",
  "SpacingBetweenSlices": 4.8,
  "StationName": "AWP45758",
  "TaskName": "asrt",
  "TotalReadoutTime": 0.0390594,
  "TxRefAmp": 296.385,
  "dcmmeta_affine": [
    [-2.999758720397949, -0.005235570482909679, -0.06030861288309097, 95.28504180908203],
    [-0.003943988122045994, 2.9982430934906006, -0.16412654519081116, -118.28590393066406],
    [-0.037849828600883484, 0.10252128541469574, 4.79681396484375, -54.94788360595703],
    [0.0, 0.0, 0.0, 1.0]
],
  "dcmmeta_reorient_transform": [
    [0.0, -1.0, 0.0, 63.0],
    [1.0, 0.0, 0.0, 0.0],
    [0.0, 0.0, 1.0, 0.0],
    [0.0, 0.0, 0.0, 1.0]
],
  "dcmmeta_shape": [64, 64, 30, 364],
  "dcmmeta_slice_dim": 2,
  "dcmmeta_version": 0.6,
  "global": {
    "const": {
      "AcquisitionMatrix": [0, 64, 64, 0],
      "AngioFlag": "N",
      "BitsAllocated": 16,
      "BitsStored": 12,
      "BodyPartExamined": "BRAIN",
      "Columns": 384,
      "EchoNumbers": 1,
      "EchoTime": 30.0,
      "EchoTrainLength": 64,
      "FlipAngle": 90.0,
      "HighBit": 11,
      "ImageOrientationPatient": [0.99991954316999, 0.00131466265257, -0.0126166100368, -0.0017451901901, 0.99941438271611, -0.034173760861],
      "ImagePositionPatient": [-574.07888853236, -550.95335260245, -26.029665247104],
      "ImageType": [
        "ORIGINAL",
        "PRIMARY",
        "M",
        "ND",
        "MOSAIC"
],
      "ImagedNucleus": "1H",
      "ImagingFrequency": 123.200145,
      "InPlanePhaseEncodingDirection": "ROW",
      "MRAcquisitionType": "2D",
      "MagneticFieldStrength": 3.0,
      "Manufacturer": "SIEMENS",
      "ManufacturerModelName": "Skyra",
      "Modality": "MR",
      "NumberOfAverages": 1.0,
      "NumberOfPhaseEncodingSteps": 64,
      "PercentPhaseFieldOfView": 100.0,
      "PercentSampling": 100.0,
      "PerformedProcedureStepStartTime": "093545.478000",
      "PhotometricInterpretation": "MONOCHROME2",
      "PixelBandwidth": 1815.0,
      "PixelRepresentation": 0,
      "PixelSpacing": [3.0, 3.0],
      "ProtocolName": "EPI_DGIST_2",
      "RepetitionTime": 2000.0,
      "Rows": 384,
      "SAR": 0.10011391509152,
      "SamplesPerPixel": 1,
      "ScanOptions": "FS",
      "ScanningSequence": "EP",
      "SequenceName": "*epfid2d1_64",
      "SequenceVariant": "SK",
      "SeriesDescription": "EPI_DGIST_2",
      "SeriesNumber": 3,
      "SeriesTime": "100027.223000",
      "SliceLocation": -52.064049133937,
      "SliceThickness": 4.0,
      "SmallestImagePixelValue": 0,
      "SoftwareVersions": "syngo MR D13C",
      "SpacingBetweenSlices": 4.7999998822889,
      "SpecificCharacterSet": "ISO_IR 100",
      "StudyID": "1",
      "StudyTime": "093545.396000",
      "TimeOfLastCalibration": ["123723.000000", "123723.000000"],
      "TransmitCoilName": "Body",
      "VariableFlipAngleFlag": "N",
      "WindowCenterWidthExplanation": "Algo1",
      "dBdt": 0.0},
    "slices": {}
  },
  "time": {
    "samples": {
      "AcquisitionNumber": [1, 2, 3, 4, 5, 6, 7, 8, 9, 10, 11, 12, 13, 14, 15, 16, 17, 18, 19, 20, 21, 22, 23, 24, 25, 26, 27, 28, 29, 30, 31, 32, 33, 34, 35, 36, 37, 38, 39, 40, 41, 42, 43, 44, 45, 46, 47, 48, 49, 50, 51, 52, 53, 54, 55, 56, 57, 58, 59, 60, 61, 62, 63, 64, 65, 66, 67, 68, 69, 70, 71, 72, 73, 74, 75, 76, 77, 78, 79, 80, 81, 82, 83, 84, 85, 86, 87, 88, 89, 90, 91, 92, 93, 94, 95, 96, 97, 98, 99, 100, 101, 102, 103, 104, 105, 106, 107, 108, 109, 110, 111, 112, 113, 114, 115, 116, 117, 118, 119, 120, 121, 122, 123, 124, 125, 126, 127, 128, 129, 130, 131, 132, 133, 134, 135, 136, 137, 138, 139, 140, 141, 142, 143, 144, 145, 146, 147, 148, 149, 150, 151, 152, 153, 154, 155, 156, 157, 158, 159, 160, 161, 162, 163, 164, 165, 166, 167, 168, 169, 170, 171, 172, 173, 174, 175, 176, 177, 178, 179, 180, 181, 182, 183, 184, 185, 186, 187, 188, 189, 190, 191, 192, 193, 194, 195, 196, 197, 198, 199, 200, 201, 202, 203, 204, 205, 206, 207, 208, 209, 210, 211, 212, 213, 214, 215, 216, 217, 218, 219, 220, 221, 222, 223, 224, 225, 226, 227, 228, 229, 230, 231, 232, 233, 234, 235, 236, 237, 238, 239, 240, 241, 242, 243, 244, 245, 246, 247, 248, 249, 250, 251, 252, 253, 254, 255, 256, 257, 258, 259, 260, 261, 262, 263, 264, 265, 266, 267, 268, 269, 270, 271, 272, 273, 274, 275, 276, 277, 278, 279, 280, 281, 282, 283, 284, 285, 286, 287, 288, 289, 290, 291, 292, 293, 294, 295, 296, 297, 298, 299, 300, 301, 302, 303, 304, 305, 306, 307, 308, 309, 310, 311, 312, 313, 314, 315, 316, 317, 318, 319, 320, 321, 322, 323, 324, 325, 326, 327, 328, 329, 330, 331, 332, 333, 334, 335, 336, 337, 338, 339, 340, 341, 342, 343, 344, 345, 346, 347, 348, 349, 350, 351, 352, 353, 354, 355, 356, 357, 358, 359, 360, 361, 362, 363, 364],
      "AcquisitionTime": ["095933.257500", "095935.257500", "095937.257500", "095939.257500", "095941.257500", "095943.257500", "095945.257500", "095947.257500", "095949.257500", "095951.257500", "095953.257500", "095955.257500", "095957.257500", "095959.257500", "100001.257500", "100003.257500", "100005.257500", "100007.257500", "100009.257500", "100011.257500", "100013.257500", "100015.257500", "100017.257500", "100019.257500", "100021.257500", "100023.257500", "100025.257500", "100027.257500", "100029.257500", "100031.257500", "100033.257500", "100035.257500", "100037.257500", "100039.257500", "100041.257500", "100043.257500", "100045.257500", "100047.257500", "100049.257500", "100051.257500", "100053.257500", "100055.257500", "100057.257500", "100059.257500", "100101.257500", "100103.257500", "100105.257500", "100107.257500", "100109.257500", "100111.257500", "100113.257500", "100115.257500", "100117.257500", "100119.257500", "100121.257500", "100123.257500", "100125.257500", "100127.257500", "100129.257500", "100131.257500", "100133.257500", "100135.257500", "100137.257500", "100139.257500", "100141.257500", "100143.257500", "100145.257500", "100147.257500", "100149.257500", "100151.257500", "100153.257500", "100155.257500", "100157.257500", "100159.257500", "100201.257500", "100203.257500", "100205.257500", "100207.257500", "100209.257500", "100211.257500", "100213.257500", "100215.257500", "100217.257500", "100219.257500", "100221.257500", "100223.257500", "100225.257500", "100227.257500", "100229.257500", "100231.257500", "100233.257500", "100235.257500", "100237.257500", "100239.257500", "100241.257500", "100243.257500", "100245.257500", "100247.257500", "100249.257500", "100251.257500", "100253.257500", "100255.257500", "100257.257500", "100259.257500", "100301.257500", "100303.257500", "100305.257500", "100307.257500", "100309.257500", "100311.257500", "100313.257500", "100315.257500", "100317.257500", "100319.257500", "100321.257500", "100323.257500", "100325.257500", "100327.257500", "100329.257500", "100331.257500", "100333.257500", "100335.257500", "100337.257500", "100339.257500", "100341.257500", "100343.257500", "100345.257500", "100347.257500", "100349.257500", "100351.257500", "100353.257500", "100355.257500", "100357.257500", "100359.257500", "100401.257500", "100403.257500", "100405.257500", "100407.257500", "100409.257500", "100411.257500", "100413.257500", "100415.257500", "100417.257500", "100419.257500", "100421.257500", "100423.257500", "100425.257500", "100427.257500", "100429.257500", "100431.257500", "100433.257500", "100435.257500", "100437.257500", "100439.257500", "100441.257500", "100443.257500", "100445.257500", "100447.257500", "100449.257500", "100451.257500", "100453.257500", "100455.257500", "100457.257500", "100459.257500", "100501.257500", "100503.257500", "100505.257500", "100507.257500", "100509.257500", "100511.257500", "100513.257500", "100515.257500", "100517.257500", "100519.257500", "100521.257500", "100523.257500", "100525.257500", "100527.257500", "100529.257500", "100531.257500", "100533.257500", "100535.257500", "100537.257500", "100539.257500", "100541.257500", "100543.257500", "100545.257500", "100547.257500", "100549.257500", "100551.257500", "100553.257500", "100555.257500", "100557.257500", "100559.257500", "100601.257500", "100603.257500", "100605.257500", "100607.257500", "100609.257500", "100611.257500", "100613.257500", "100615.257500", "100617.257500", "100619.257500", "100621.257500", "100623.257500", "100625.257500", "100627.257500", "100629.257500", "100631.257500", "100633.257500", "100635.257500", "100637.257500", "100639.257500", "100641.257500", "100643.257500", "100645.257500", "100647.257500", "100649.257500", "100651.257500", "100653.257500", "100655.257500", "100657.257500", "100659.257500", "100701.257500", "100703.257500", "100705.257500", "100707.257500", "100709.257500", "100711.257500", "100713.257500", "100715.257500", "100717.257500", "100719.257500", "100721.257500", "100723.257500", "100725.257500", "100727.257500", "100729.257500", "100731.257500", "100733.257500", "100735.257500", "100737.257500", "100739.257500", "100741.260000", "100743.260000", "100745.260000", "100747.260000", "100749.260000", "100751.260000", "100753.260000", "100755.260000", "100757.260000", "100759.260000", "100801.260000", "100803.260000", "100805.260000", "100807.260000", "100809.260000", "100811.260000", "100813.260000", "100815.260000", "100817.260000", "100819.260000", "100821.260000", "100823.260000", "100825.260000", "100827.260000", "100829.260000", "100831.260000", "100833.260000", "100835.260000", "100837.260000", "100839.260000", "100841.260000", "100843.260000", "100845.260000", "100847.260000", "100849.260000", "100851.260000", "100853.260000", "100855.260000", "100857.260000", "100859.260000", "100901.260000", "100903.260000", "100905.260000", "100907.260000", "100909.260000", "100911.260000", "100913.260000", "100915.260000", "100917.260000", "100919.260000", "100921.260000", "100923.260000", "100925.260000", "100927.260000", "100929.260000", "100931.260000", "100933.260000", "100935.260000", "100937.260000", "100939.260000", "100941.260000", "100943.260000", "100945.260000", "100947.260000", "100949.260000", "100951.260000", "100953.260000", "100955.260000", "100957.260000", "100959.260000", "101001.260000", "101003.260000", "101005.260000", "101007.260000", "101009.260000", "101011.260000", "101013.260000", "101015.260000", "101017.260000", "101019.260000", "101021.260000", "101023.260000", "101025.260000", "101027.260000", "101029.260000", "101031.260000", "101033.260000", "101035.260000", "101037.260000", "101039.260000", "101041.260000", "101043.260000", "101045.260000", "101047.260000", "101049.260000", "101051.260000", "101053.260000", "101055.260000", "101057.260000", "101059.260000", "101101.260000", "101103.260000", "101105.260000", "101107.260000", "101109.260000", "101111.260000", "101113.260000", "101115.260000", "101117.260000", "101119.260000", "101121.260000", "101123.260000", "101125.260000", "101127.260000", "101129.260000", "101131.260000", "101133.260000", "101135.260000", "101137.260000", "101139.260000"],
      "ContentTime": ["100027.227000", "100027.230000", "100027.232000", "100027.234000", "100027.236000", "100027.238000", "100027.240000", "100027.242000", "100027.244000", "100027.246000", "100027.248000", "100027.250000", "100027.251000", "100027.253000", "100027.261000", "100027.263000", "100027.265000", "100027.267000", "100027.269000", "100027.271000", "100027.273000", "100027.275000", "100027.277000", "100027.279000", "100027.281000", "100027.283000", "100027.285000", "100107.221000", "100107.223000", "100107.225000", "100107.233000", "100107.235000", "100107.237000", "100107.239000", "100107.241000", "100107.243000", "100107.245000", "100107.247000", "100107.249000", "100107.251000", "100107.253000", "100107.255000", "100107.257000", "100107.259000", "100107.261000", "100107.263000", "100107.264000", "100147.221000", "100147.223000", "100147.225000", "100147.227000", "100147.229000", "100147.231000", "100147.233000", "100147.235000", "100147.237000", "100147.239000", "100147.241000", "100147.243000", "100147.248000", "100147.250000", "100147.252000", "100147.254000", "100147.256000", "100147.258000", "100147.260000", "100147.262000", "100207.221000", "100207.223000", "100207.225000", "100207.227000", "100207.229000", "100207.231000", "100207.233000", "100207.235000", "100207.237000", "100207.239000", "100247.221000", "100247.223000", "100247.225000", "100247.227000", "100247.229000", "100247.231000", "100247.233000", "100247.235000", "100247.237000", "100247.239000", "100247.241000", "100247.243000", "100247.245000", "100247.246000", "100247.248000", "100247.250000", "100247.252000", "100247.254000", "100247.256000", "100247.258000", "100327.221000", "100327.223000", "100327.225000", "100327.227000", "100327.229000", "100327.231000", "100327.233000", "100327.235000", "100327.237000", "100327.239000", "100327.241000", "100327.243000", "100327.252000", "100327.254000", "100327.256000", "100327.258000", "100327.260000", "100327.262000", "100327.264000", "100327.266000", "100407.221000", "100407.223000", "100407.225000", "100407.227000", "100407.229000", "100407.231000", "100407.233000", "100407.235000", "100407.237000", "100407.239000", "100407.241000", "100407.243000", "100407.245000", "100407.247000", "100407.248000", "100407.250000", "100407.252000", "100407.254000", "100407.256000", "100407.258000", "100447.221000", "100447.223000", "100447.225000", "100447.227000", "100447.229000", "100447.231000", "100447.233000", "100447.235000", "100447.237000", "100447.239000", "100447.241000", "100447.243000", "100447.245000", "100447.247000", "100447.249000", "100447.250000", "100447.252000", "100447.254000", "100447.256000", "100447.258000", "100527.220000", "100527.222000", "100527.224000", "100527.226000", "100527.228000", "100527.230000", "100527.232000", "100527.234000", "100527.236000", "100527.238000", "100527.239000", "100527.241000", "100527.243000", "100527.245000", "100527.247000", "100527.249000", "100527.251000", "100527.253000", "100527.255000", "100527.257000", "100607.221000", "100607.223000", "100607.225000", "100607.227000", "100607.229000", "100607.231000", "100607.233000", "100607.235000", "100607.237000", "100607.239000", "100607.241000", "100607.243000", "100607.245000", "100607.246000", "100607.249000", "100607.251000", "100607.252000", "100607.254000", "100607.256000", "100607.258000", "100647.221000", "100647.223000", "100647.225000", "100647.227000", "100647.229000", "100647.231000", "100647.233000", "100647.235000", "100647.237000", "100647.239000", "100647.241000", "100647.243000", "100647.245000", "100647.246000", "100647.248000", "100647.250000", "100647.252000", "100647.254000", "100647.256000", "100647.258000", "100727.221000", "100727.223000", "100727.225000", "100727.227000", "100727.229000", "100727.231000", "100727.233000", "100727.235000", "100727.237000", "100727.239000", "100727.241000", "100727.243000", "100727.245000", "100727.247000", "100727.249000", "100727.251000", "100727.266000", "100727.268000", "100727.270000", "100727.272000", "100807.221000", "100807.223000", "100807.225000", "100807.227000", "100807.229000", "100807.231000", "100807.233000", "100807.235000", "100807.237000", "100807.240000", "100807.242000", "100807.244000", "100807.246000", "100807.248000", "100807.250000", "100807.252000", "100807.254000", "100807.255000", "100807.258000", "100807.260000", "100847.221000", "100847.223000", "100847.225000", "100847.227000", "100847.229000", "100847.231000", "100847.233000", "100847.238000", "100847.240000", "100847.242000", "100847.244000", "100847.246000", "100847.247000", "100847.249000", "100847.251000", "100847.253000", "100847.255000", "100847.257000", "100847.259000", "100847.261000", "100927.221000", "100927.223000", "100927.225000", "100927.227000", "100927.229000", "100927.231000", "100927.233000", "100927.235000", "100927.237000", "100927.239000", "100927.241000", "100927.243000", "100927.245000", "100927.247000", "100927.248000", "100927.250000", "100927.252000", "100927.254000", "100927.256000", "100927.258000", "101007.220000", "101007.222000", "101007.224000", "101007.226000", "101007.228000", "101007.230000", "101007.232000", "101007.234000", "101007.236000", "101007.238000", "101007.240000", "101007.242000", "101007.244000", "101007.245000", "101007.247000", "101007.249000", "101007.251000", "101007.253000", "101007.255000", "101007.257000", "101047.221000", "101047.223000", "101047.225000", "101047.227000", "101047.229000", "101047.231000", "101047.233000", "101047.235000", "101047.237000", "101047.239000", "101047.241000", "101047.243000", "101047.245000", "101047.247000", "101047.249000", "101047.251000", "101047.253000", "101047.255000", "101047.257000", "101047.258000", "101127.221000", "101127.223000", "101127.225000", "101127.227000", "101127.229000", "101127.231000", "101127.233000", "101127.235000", "101127.237000", "101127.239000", "101127.241000", "101127.243000", "101127.245000", "101127.247000", "101127.249000", "101127.250000", "101127.252000", "101127.254000", "101127.256000", "101127.258000", "101140.416000", "101140.419000", "101140.421000", "101140.423000", "101140.425000", "101140.427000", "101140.429000"],
      "InstanceCreationTime": ["100027.227000", "100027.230000", "100027.232000", "100027.234000", "100027.236000", "100027.238000", "100027.240000", "100027.242000", "100027.244000", "100027.246000", "100027.248000", "100027.250000", "100027.251000", "100027.253000", "100027.261000", "100027.263000", "100027.265000", "100027.267000", "100027.269000", "100027.271000", "100027.273000", "100027.275000", "100027.277000", "100027.279000", "100027.281000", "100027.283000", "100027.285000", "100107.221000", "100107.223000", "100107.225000", "100107.233000", "100107.235000", "100107.237000", "100107.239000", "100107.241000", "100107.243000", "100107.245000", "100107.247000", "100107.249000", "100107.251000", "100107.253000", "100107.255000", "100107.257000", "100107.259000", "100107.261000", "100107.263000", "100107.264000", "100147.221000", "100147.223000", "100147.225000", "100147.227000", "100147.229000", "100147.231000", "100147.233000", "100147.235000", "100147.237000", "100147.239000", "100147.241000", "100147.243000", "100147.248000", "100147.250000", "100147.252000", "100147.254000", "100147.256000", "100147.258000", "100147.260000", "100147.262000", "100207.221000", "100207.223000", "100207.225000", "100207.227000", "100207.229000", "100207.231000", "100207.233000", "100207.235000", "100207.237000", "100207.239000", "100247.221000", "100247.223000", "100247.225000", "100247.227000", "100247.229000", "100247.231000", "100247.233000", "100247.235000", "100247.237000", "100247.239000", "100247.241000", "100247.243000", "100247.245000", "100247.246000", "100247.248000", "100247.250000", "100247.252000", "100247.254000", "100247.256000", "100247.258000", "100327.221000", "100327.223000", "100327.225000", "100327.227000", "100327.229000", "100327.231000", "100327.233000", "100327.235000", "100327.237000", "100327.239000", "100327.241000", "100327.243000", "100327.252000", "100327.254000", "100327.256000", "100327.258000", "100327.260000", "100327.262000", "100327.264000", "100327.266000", "100407.221000", "100407.223000", "100407.225000", "100407.227000", "100407.229000", "100407.231000", "100407.233000", "100407.235000", "100407.237000", "100407.239000", "100407.241000", "100407.243000", "100407.245000", "100407.247000", "100407.248000", "100407.250000", "100407.252000", "100407.254000", "100407.256000", "100407.258000", "100447.221000", "100447.223000", "100447.225000", "100447.227000", "100447.229000", "100447.231000", "100447.233000", "100447.235000", "100447.237000", "100447.239000", "100447.241000", "100447.243000", "100447.245000", "100447.247000", "100447.249000", "100447.250000", "100447.252000", "100447.254000", "100447.256000", "100447.258000", "100527.220000", "100527.222000", "100527.224000", "100527.226000", "100527.228000", "100527.230000", "100527.232000", "100527.234000", "100527.236000", "100527.238000", "100527.239000", "100527.241000", "100527.243000", "100527.245000", "100527.247000", "100527.249000", "100527.251000", "100527.253000", "100527.255000", "100527.257000", "100607.221000", "100607.223000", "100607.225000", "100607.227000", "100607.229000", "100607.231000", "100607.233000", "100607.235000", "100607.237000", "100607.239000", "100607.241000", "100607.243000", "100607.245000", "100607.246000", "100607.249000", "100607.251000", "100607.252000", "100607.254000", "100607.256000", "100607.258000", "100647.221000", "100647.223000", "100647.225000", "100647.227000", "100647.229000", "100647.231000", "100647.233000", "100647.235000", "100647.237000", "100647.239000", "100647.241000", "100647.243000", "100647.245000", "100647.246000", "100647.248000", "100647.250000", "100647.252000", "100647.254000", "100647.256000", "100647.258000", "100727.221000", "100727.223000", "100727.225000", "100727.227000", "100727.229000", "100727.231000", "100727.233000", "100727.235000", "100727.237000", "100727.239000", "100727.241000", "100727.243000", "100727.245000", "100727.247000", "100727.249000", "100727.251000", "100727.266000", "100727.268000", "100727.270000", "100727.272000", "100807.221000", "100807.223000", "100807.225000", "100807.227000", "100807.229000", "100807.231000", "100807.233000", "100807.235000", "100807.237000", "100807.240000", "100807.242000", "100807.244000", "100807.246000", "100807.248000", "100807.250000", "100807.252000", "100807.254000", "100807.255000", "100807.258000", "100807.260000", "100847.221000", "100847.223000", "100847.225000", "100847.227000", "100847.229000", "100847.231000", "100847.233000", "100847.238000", "100847.240000", "100847.242000", "100847.244000", "100847.246000", "100847.247000", "100847.249000", "100847.251000", "100847.253000", "100847.255000", "100847.257000", "100847.259000", "100847.261000", "100927.221000", "100927.223000", "100927.225000", "100927.227000", "100927.229000", "100927.231000", "100927.233000", "100927.235000", "100927.237000", "100927.239000", "100927.241000", "100927.243000", "100927.245000", "100927.247000", "100927.248000", "100927.250000", "100927.252000", "100927.254000", "100927.256000", "100927.258000", "101007.220000", "101007.222000", "101007.224000", "101007.226000", "101007.228000", "101007.230000", "101007.232000", "101007.234000", "101007.236000", "101007.238000", "101007.240000", "101007.242000", "101007.244000", "101007.245000", "101007.247000", "101007.249000", "101007.251000", "101007.253000", "101007.255000", "101007.257000", "101047.221000", "101047.223000", "101047.225000", "101047.227000", "101047.229000", "101047.231000", "101047.233000", "101047.235000", "101047.237000", "101047.239000", "101047.241000", "101047.243000", "101047.245000", "101047.247000", "101047.249000", "101047.251000", "101047.253000", "101047.255000", "101047.257000", "101047.258000", "101127.221000", "101127.223000", "101127.225000", "101127.227000", "101127.229000", "101127.231000", "101127.233000", "101127.235000", "101127.237000", "101127.239000", "101127.241000", "101127.243000", "101127.245000", "101127.247000", "101127.249000", "101127.250000", "101127.252000", "101127.254000", "101127.256000", "101127.258000", "101140.416000", "101140.419000", "101140.421000", "101140.423000", "101140.425000", "101140.427000", "101140.429000"],
      "InstanceNumber": [1, 2, 3, 4, 5, 6, 7, 8, 9, 10, 11, 12, 13, 14, 15, 16, 17, 18, 19, 20, 21, 22, 23, 24, 25, 26, 27, 28, 29, 30, 31, 32, 33, 34, 35, 36, 37, 38, 39, 40, 41, 42, 43, 44, 45, 46, 47, 48, 49, 50, 51, 52, 53, 54, 55, 56, 57, 58, 59, 60, 61, 62, 63, 64, 65, 66, 67, 68, 69, 70, 71, 72, 73, 74, 75, 76, 77, 78, 79, 80, 81, 82, 83, 84, 85, 86, 87, 88, 89, 90, 91, 92, 93, 94, 95, 96, 97, 98, 99, 100, 101, 102, 103, 104, 105, 106, 107, 108, 109, 110, 111, 112, 113, 114, 115, 116, 117, 118, 119, 120, 121, 122, 123, 124, 125, 126, 127, 128, 129, 130, 131, 132, 133, 134, 135, 136, 137, 138, 139, 140, 141, 142, 143, 144, 145, 146, 147, 148, 149, 150, 151, 152, 153, 154, 155, 156, 157, 158, 159, 160, 161, 162, 163, 164, 165, 166, 167, 168, 169, 170, 171, 172, 173, 174, 175, 176, 177, 178, 179, 180, 181, 182, 183, 184, 185, 186, 187, 188, 189, 190, 191, 192, 193, 194, 195, 196, 197, 198, 199, 200, 201, 202, 203, 204, 205, 206, 207, 208, 209, 210, 211, 212, 213, 214, 215, 216, 217, 218, 219, 220, 221, 222, 223, 224, 225, 226, 227, 228, 229, 230, 231, 232, 233, 234, 235, 236, 237, 238, 239, 240, 241, 242, 243, 244, 245, 246, 247, 248, 249, 250, 251, 252, 253, 254, 255, 256, 257, 258, 259, 260, 261, 262, 263, 264, 265, 266, 267, 268, 269, 270, 271, 272, 273, 274, 275, 276, 277, 278, 279, 280, 281, 282, 283, 284, 285, 286, 287, 288, 289, 290, 291, 292, 293, 294, 295, 296, 297, 298, 299, 300, 301, 302, 303, 304, 305, 306, 307, 308, 309, 310, 311, 312, 313, 314, 315, 316, 317, 318, 319, 320, 321, 322, 323, 324, 325, 326, 327, 328, 329, 330, 331, 332, 333, 334, 335, 336, 337, 338, 339, 340, 341, 342, 343, 344, 345, 346, 347, 348, 349, 350, 351, 352, 353, 354, 355, 356, 357, 358, 359, 360, 361, 362, 363, 364],
      "LargestImagePixelValue": [3107, 3096, 3107, 3129, 3096, 3086, 3095, 3111, 3085, 3098, 3115, 3120, 3076, 3067, 3050, 3110, 3131, 3125, 3099, 3071, 3031, 3053, 3066, 3084, 3102, 3111, 3139, 3147, 3171, 3146, 3090, 3071, 3061, 3077, 3067, 3090, 3106, 3094, 3046, 3032, 3033, 3026, 3035, 3035, 3066, 3018, 3034, 3056, 3110, 3089, 3082, 3070, 3070, 3105, 3081, 3099, 3105, 3114, 3124, 3133, 3135, 3129, 3139, 3159, 3117, 3132, 3136, 3096, 3061, 3050, 3033, 3058, 3077, 3081, 3118, 3105, 3139, 3085, 3043, 3073, 3072, 3081, 3084, 3094, 3071, 3049, 3027, 3058, 3065, 3074, 3076, 3099, 3060, 3047, 3066, 3091, 3116, 3102, 3079, 3079, 3059, 3056, 3059, 3068, 3092, 3105, 3097, 3062, 3046, 3033, 3044, 3030, 3051, 3078, 3064, 3064, 3108, 3135, 3157, 3137, 3105, 3120, 3148, 3137, 3118, 3082, 3086, 3108, 3118, 3134, 3132, 3095, 3075, 3097, 3114, 3121, 3112, 3105, 3084, 3098, 3092, 3110, 3112, 3118, 3088, 3110, 3103, 3123, 3097, 3124, 3125, 3134, 3081, 3044, 3061, 3092, 3117, 3074, 3072, 3114, 3094, 3114, 3120, 3097, 3054, 3061, 3070, 3087, 3086, 3077, 3081, 3094, 3114, 3134, 3144, 3160, 3181, 3157, 3138, 3132, 3112, 3115, 3106, 3065, 3062, 3069, 3102, 3094, 3131, 3096, 3088, 3098, 3097, 3076, 3040, 3067, 3095, 3111, 3121, 3071, 3104, 3107, 3140, 3124, 3137, 3135, 3107, 3090, 3123, 3118, 3121, 3153, 3159, 3192, 3179, 3164, 3156, 3134, 3074, 3058, 3067, 3092, 3084, 3115, 3140, 3149, 3165, 3143, 3118, 3105, 3076, 3095, 3095, 3119, 3120, 3159, 3172, 3151, 3123, 3119, 3147, 3158, 3142, 3091, 3116, 3123, 3135, 3125, 3110, 3093, 3106, 3116, 3097, 3087, 3122, 3124, 3115, 3149, 3164, 3162, 3146, 3160, 3153, 3138, 3115, 3121, 3135, 3132, 3143, 3155, 3138, 3112, 3075, 3034, 3047, 3029, 2998, 3031, 3040, 3070, 3054, 3036, 3062, 3092, 3109, 3108, 3081, 3093, 3113, 3094, 3054, 3101, 3140, 3162, 3167, 3146, 3132, 3121, 3136, 3113, 3075, 3144, 3172, 3151, 3131, 3130, 3144, 3157, 3156, 3116, 3095, 3114, 3145, 3129, 3152, 3128, 3118, 3115, 3115, 3161, 3155, 3168, 3127, 3116, 3146, 3166, 3136, 3097, 3095, 3133, 3116, 3108, 3133, 3089, 3029, 3056, 3081, 3092, 3110, 3104, 3076, 3075, 3038, 3025, 3050, 3037, 3015, 3054, 3086, 3062, 3076, 3085, 3107, 3106, 3076, 3109, 3138, 3145, 3095, 3059, 3091, 3105, 3109, 3045],
