{
  "AcquisitionMatrixPE": 64,
  "AcquisitionNumber": 1,
  "AcquisitionTime": "09:31:35.060000",
  "BandwidthPerPixelPhaseEncode": 25.202,
  "BaseResolution": 64,
  "BodyPartExamined": "BRAIN",
  "ConsistencyInfo": "N4_VD13C_LATEST_20121124",
  "ConversionSoftware": "dcm2niix",
  "ConversionSoftwareVersion": "v1.0.20201102",
  "DerivedVendorReportedEchoSpacing": 0.00061999,
  "DeviceSerialNumber": "45758",
  "DwellTime": 4.3e-06,
  "EchoTime": 0.03,
  "EchoTrainLength": 64,
  "EffectiveEchoSpacing": 0.00061999,
  "FlipAngle": 90,
  "ImageOrientationPatientDICOM": [0.999002, -0.0195593, -0.0401495, 0.0139496, 0.990676, -0.135525],
  "ImageType": [
    "ORIGINAL",
    "PRIMARY",
    "M",
    "ND",
    "MOSAIC"
],
  "ImagingFrequency": 123.2,
  "InPlanePhaseEncodingDirectionDICOM": "ROW",
  "InstitutionAddress": "Street StreetNo,City /652E4B/,District,KR,ZIP",
  "InstitutionName": "DGMIF",
  "InstitutionalDepartmentName": "Department",
  "MRAcquisitionType": "2D",
  "MagneticFieldStrength": 3,
  "Manufacturer": "Siemens",
  "ManufacturersModelName": "Skyra",
  "Modality": "MR",
  "PartialFourier": 1,
  "PatientPosition": "HFS",
  "PercentPhaseFOV": 100,
  "PercentSampling": 100,
  "PhaseEncodingDirection": "i",
  "PhaseEncodingSteps": 64,
  "PhaseResolution": 1,
  "PixelBandwidth": 1815,
  "ProcedureStepDescription": "DGMIF^DGIST_Jeon",
  "ProtocolName": "EPI_DGIST_1",
  "PulseSequenceDetails": "%SiemensSeq%\\ep2d_bold",
  "ReceiveCoilActiveElements": "HC1-7",
  "ReceiveCoilName": "HeadNeck_64",
  "ReconMatrixPE": 64,
  "RepetitionTime": 2,
  "SAR": 0.123354,
  "ScanOptions": "FS",
  "ScanningSequence": "EP",
  "SequenceName": "*epfid2d1_64",
  "SequenceVariant": "SK",
  "SeriesDescription": "EPI_DGIST_1",
  "SeriesNumber": 2,
  "ShimSetting": [-9789, -13652, -8205, 132, -417, -440, -70, 15],
  "SliceThickness": 4,
  "SliceTiming": [0.99, 0, 1.0575, 0.0675, 1.1225, 0.1325, 1.1875, 0.1975, 1.255, 0.265, 1.32, 0.33, 1.3875, 0.3975, 1.4525, 0.4625, 1.5175, 0.5275, 1.585, 0.595, 1.65, 0.66, 1.7175, 0.7275, 1.7825, 0.7925, 1.8475, 0.8575, 1.915, 0.925],
  "SoftwareVersions": "syngo MR D13C",
  "SpacingBetweenSlices": 4.8,
  "StationName": "AWP45758",
  "TaskName": "asrt",
  "TotalReadoutTime": 0.0390594,
  "TxRefAmp": 324.456,
  "dcmmeta_affine": [
    [-2.99700665473938, 0.04184882715344429, -0.20364437997341156, 95.37294006347656],
    [0.058678038418293, 2.972027063369751, -0.6471846103668213, -107.43185424804688],
    [-0.12044847756624222, 0.4065762758255005, 4.751808166503906, -83.9657211303711],
    [0.0, 0.0, 0.0, 1.0]
],
  "dcmmeta_reorient_transform": [
    [0.0, -1.0, 0.0, 63.0],
    [1.0, 0.0, 0.0, 0.0],
    [0.0, 0.0, 1.0, 0.0],
    [0.0, 0.0, 0.0, 1.0]
],
  "dcmmeta_shape": [64, 64, 30, 514],
  "dcmmeta_slice_dim": 2,
  "dcmmeta_version": 0.6,
  "global": {
    "const": {
      "AcquisitionMatrix": [0, 64, 64, 0],
      "AngioFlag": "N",
      "BitsAllocated": 16,
      "BitsStored": 12,
      "BodyPartExamined": "BRAIN",
      "Columns": 384,
      "EchoNumbers": 1,
      "EchoTime": 30.0,
      "EchoTrainLength": 64,
      "FlipAngle": 90.0,
      "HighBit": 11,
      "ImageOrientationPatient": [0.99900222731144, -0.0195593459031, -0.0401494933297, 0.01394960948976, 0.99067566260755, -0.1355254216455],
      "ImagePositionPatient": [-584.22629587887, -545.94167941387, 25.972541614068],
      "ImageType": [
        "ORIGINAL",
        "PRIMARY",
        "M",
        "ND",
        "MOSAIC"
],
      "ImagedNucleus": "1H",
      "ImagingFrequency": 123.200125,
      "InPlanePhaseEncodingDirection": "ROW",
      "MRAcquisitionType": "2D",
      "MagneticFieldStrength": 3.0,
      "Manufacturer": "SIEMENS",
      "ManufacturerModelName": "Skyra",
      "Modality": "MR",
      "NumberOfAverages": 1.0,
      "NumberOfPhaseEncodingSteps": 64,
      "PercentPhaseFieldOfView": 100.0,
      "PercentSampling": 100.0,
      "PerformedProcedureStepStartTime": "091116.131000",
      "PhotometricInterpretation": "MONOCHROME2",
      "PixelBandwidth": 1815.0,
      "PixelRepresentation": 0,
      "PixelSpacing": [3.0, 3.0],
      "ProtocolName": "EPI_DGIST_1",
      "RepetitionTime": 2000.0,
      "Rows": 384,
      "SAR": 0.12335425627351,
      "SamplesPerPixel": 1,
      "ScanOptions": "FS",
      "ScanningSequence": "EP",
      "SequenceName": "*epfid2d1_64",
      "SequenceVariant": "SK",
      "SeriesDescription": "EPI_DGIST_1",
      "SeriesNumber": 2,
      "SeriesTime": "093227.558000",
      "SliceLocation": -72.683943275409,
      "SliceThickness": 4.0,
      "SmallestImagePixelValue": 0,
      "SoftwareVersions": "syngo MR D13C",
      "SpacingBetweenSlices": 4.7999998575597,
      "SpecificCharacterSet": "ISO_IR 100",
      "StudyID": "1",
      "StudyTime": "091116.015000",
      "TimeOfLastCalibration": ["123723.000000", "123723.000000"],
      "TransmitCoilName": "Body",
      "VariableFlipAngleFlag": "N",
      "WindowCenterWidthExplanation": "Algo1",
      "dBdt": 0.0},
    "slices": {}
  },
  "time": {
    "samples": {
      "AcquisitionNumber": [1, 2, 3, 4, 5, 6, 7, 8, 9, 10, 11, 12, 13, 14, 15, 16, 17, 18, 19, 20, 21, 22, 23, 24, 25, 26, 27, 28, 29, 30, 31, 32, 33, 34, 35, 36, 37, 38, 39, 40, 41, 42, 43, 44, 45, 46, 47, 48, 49, 50, 51, 52, 53, 54, 55, 56, 57, 58, 59, 60, 61, 62, 63, 64, 65, 66, 67, 68, 69, 70, 71, 72, 73, 74, 75, 76, 77, 78, 79, 80, 81, 82, 83, 84, 85, 86, 87, 88, 89, 90, 91, 92, 93, 94, 95, 96, 97, 98, 99, 100, 101, 102, 103, 104, 105, 106, 107, 108, 109, 110, 111, 112, 113, 114, 115, 116, 117, 118, 119, 120, 121, 122, 123, 124, 125, 126, 127, 128, 129, 130, 131, 132, 133, 134, 135, 136, 137, 138, 139, 140, 141, 142, 143, 144, 145, 146, 147, 148, 149, 150, 151, 152, 153, 154, 155, 156, 157, 158, 159, 160, 161, 162, 163, 164, 165, 166, 167, 168, 169, 170, 171, 172, 173, 174, 175, 176, 177, 178, 179, 180, 181, 182, 183, 184, 185, 186, 187, 188, 189, 190, 191, 192, 193, 194, 195, 196, 197, 198, 199, 200, 201, 202, 203, 204, 205, 206, 207, 208, 209, 210, 211, 212, 213, 214, 215, 216, 217, 218, 219, 220, 221, 222, 223, 224, 225, 226, 227, 228, 229, 230, 231, 232, 233, 234, 235, 236, 237, 238, 239, 240, 241, 242, 243, 244, 245, 246, 247, 248, 249, 250, 251, 252, 253, 254, 255, 256, 257, 258, 259, 260, 261, 262, 263, 264, 265, 266, 267, 268, 269, 270, 271, 272, 273, 274, 275, 276, 277, 278, 279, 280, 281, 282, 283, 284, 285, 286, 287, 288, 289, 290, 291, 292, 293, 294, 295, 296, 297, 298, 299, 300, 301, 302, 303, 304, 305, 306, 307, 308, 309, 310, 311, 312, 313, 314, 315, 316, 317, 318, 319, 320, 321, 322, 323, 324, 325, 326, 327, 328, 329, 330, 331, 332, 333, 334, 335, 336, 337, 338, 339, 340, 341, 342, 343, 344, 345, 346, 347, 348, 349, 350, 351, 352, 353, 354, 355, 356, 357, 358, 359, 360, 361, 362, 363, 364, 365, 366, 367, 368, 369, 370, 371, 372, 373, 374, 375, 376, 377, 378, 379, 380, 381, 382, 383, 384, 385, 386, 387, 388, 389, 390, 391, 392, 393, 394, 395, 396, 397, 398, 399, 400, 401, 402, 403, 404, 405, 406, 407, 408, 409, 410, 411, 412, 413, 414, 415, 416, 417, 418, 419, 420, 421, 422, 423, 424, 425, 426, 427, 428, 429, 430, 431, 432, 433, 434, 435, 436, 437, 438, 439, 440, 441, 442, 443, 444, 445, 446, 447, 448, 449, 450, 451, 452, 453, 454, 455, 456, 457, 458, 459, 460, 461, 462, 463, 464, 465, 466, 467, 468, 469, 470, 471, 472, 473, 474, 475, 476, 477, 478, 479, 480, 481, 482, 483, 484, 485, 486, 487, 488, 489, 490, 491, 492, 493, 494, 495, 496, 497, 498, 499, 500, 501, 502, 503, 504, 505, 506, 507, 508, 509, 510, 511, 512, 513, 514],
      "AcquisitionTime": ["093135.060000", "093137.060000", "093139.060000", "093141.060000", "093143.060000", "093145.060000", "093147.060000", "093149.060000", "093151.060000", "093153.060000", "093155.060000", "093157.060000", "093159.060000", "093201.060000", "093203.060000", "093205.060000", "093207.060000", "093209.060000", "093211.060000", "093213.060000", "093215.060000", "093217.060000", "093219.060000", "093221.060000", "093223.060000", "093225.060000", "093227.060000", "093229.060000", "093231.060000", "093233.060000", "093235.060000", "093237.060000", "093239.060000", "093241.060000", "093243.060000", "093245.060000", "093247.060000", "093249.060000", "093251.060000", "093253.060000", "093255.060000", "093257.060000", "093259.060000", "093301.060000", "093303.060000", "093305.060000", "093307.060000", "093309.060000", "093311.060000", "093313.060000", "093315.060000", "093317.060000", "093319.060000", "093321.060000", "093323.060000", "093325.060000", "093327.060000", "093329.060000", "093331.060000", "093333.060000", "093335.060000", "093337.060000", "093339.060000", "093341.060000", "093343.060000", "093345.060000", "093347.060000", "093349.060000", "093351.060000", "093353.060000", "093355.060000", "093357.060000", "093359.060000", "093401.060000", "093403.060000", "093405.060000", "093407.060000", "093409.060000", "093411.060000", "093413.060000", "093415.060000", "093417.060000", "093419.060000", "093421.062500", "093423.062500", "093425.062500", "093427.062500", "093429.062500", "093431.062500", "093433.062500", "093435.062500", "093437.062500", "093439.062500", "093441.062500", "093443.062500", "093445.062500", "093447.062500", "093449.062500", "093451.062500", "093453.062500", "093455.062500", "093457.062500", "093459.062500", "093501.062500", "093503.062500", "093505.062500", "093507.062500", "093509.062500", "093511.062500", "093513.062500", "093515.062500", "093517.062500", "093519.062500", "093521.062500", "093523.062500", "093525.062500", "093527.062500", "093529.062500", "093531.062500", "093533.062500", "093535.062500", "093537.062500", "093539.062500", "093541.062500", "093543.062500", "093545.062500", "093547.062500", "093549.062500", "093551.062500", "093553.062500", "093555.062500", "093557.062500", "093559.062500", "093601.062500", "093603.062500", "093605.062500", "093607.062500", "093609.062500", "093611.062500", "093613.062500", "093615.062500", "093617.062500", "093619.062500", "093621.062500", "093623.062500", "093625.062500", "093627.062500", "093629.062500", "093631.062500", "093633.062500", "093635.062500", "093637.062500", "093639.062500", "093641.062500", "093643.062500", "093645.062500", "093647.062500", "093649.062500", "093651.062500", "093653.062500", "093655.062500", "093657.062500", "093659.062500", "093701.062500", "093703.062500", "093705.062500", "093707.062500", "093709.062500", "093711.062500", "093713.062500", "093715.062500", "093717.062500", "093719.062500", "093721.062500", "093723.062500", "093725.062500", "093727.062500", "093729.062500", "093731.062500", "093733.062500", "093735.062500", "093737.062500", "093739.062500", "093741.062500", "093743.062500", "093745.062500", "093747.062500", "093749.062500", "093751.062500", "093753.062500", "093755.062500", "093757.062500", "093759.062500", "093801.062500", "093803.062500", "093805.062500", "093807.062500", "093809.062500", "093811.062500", "093813.062500", "093815.062500", "093817.062500", "093819.062500", "093821.062500", "093823.062500", "093825.062500", "093827.062500", "093829.062500", "093831.062500", "093833.062500", "093835.062500", "093837.062500", "093839.062500", "093841.062500", "093843.062500", "093845.062500", "093847.062500", "093849.062500", "093851.062500", "093853.062500", "093855.062500", "093857.062500", "093859.062500", "093901.062500", "093903.062500", "093905.062500", "093907.062500", "093909.062500", "093911.062500", "093913.062500", "093915.062500", "093917.062500", "093919.062500", "093921.062500", "093923.062500", "093925.062500", "093927.062500", "093929.062500", "093931.062500", "093933.062500", "093935.062500", "093937.062500", "093939.062500", "093941.062500", "093943.062500", "093945.062500", "093947.062500", "093949.062500", "093951.062500", "093953.062500", "093955.062500", "093957.062500", "093959.062500", "094001.062500", "094003.062500", "094005.062500", "094007.062500", "094009.062500", "094011.062500", "094013.062500", "094015.062500", "094017.062500", "094019.062500", "094021.062500", "094023.062500", "094025.062500", "094027.062500", "094029.062500", "094031.062500", "094033.062500", "094035.062500", "094037.062500", "094039.062500", "094041.062500", "094043.062500", "094045.062500", "094047.062500", "094049.062500", "094051.062500", "094053.062500", "094055.062500", "094057.062500", "094059.062500", "094101.062500", "094103.062500", "094105.062500", "094107.062500", "094109.062500", "094111.062500", "094113.062500", "094115.062500", "094117.062500", "094119.062500", "094121.062500", "094123.062500", "094125.062500", "094127.062500", "094129.062500", "094131.062500", "094133.062500", "094135.062500", "094137.062500", "094139.062500", "094141.062500", "094143.062500", "094145.062500", "094147.062500", "094149.062500", "094151.062500", "094153.062500", "094155.062500", "094157.062500", "094159.062500", "094201.062500", "094203.062500", "094205.062500", "094207.062500", "094209.062500", "094211.062500", "094213.062500", "094215.062500", "094217.062500", "094219.062500", "094221.062500", "094223.062500", "094225.062500", "094227.062500", "094229.062500", "094231.062500", "094233.062500", "094235.062500", "094237.062500", "094239.062500", "094241.065000", "094243.065000", "094245.065000", "094247.065000", "094249.065000", "094251.065000", "094253.065000", "094255.065000", "094257.065000", "094259.065000", "094301.065000", "094303.065000", "094305.065000", "094307.065000", "094309.065000", "094311.065000", "094313.065000", "094315.065000", "094317.065000", "094319.065000", "094321.065000", "094323.065000", "094325.065000", "094327.065000", "094329.065000", "094331.065000", "094333.065000", "094335.065000", "094337.065000", "094339.065000", "094341.065000", "094343.065000", "094345.065000", "094347.065000", "094349.065000", "094351.065000", "094353.065000", "094355.065000", "094357.065000", "094359.065000", "094401.065000", "094403.065000", "094405.065000", "094407.065000", "094409.065000", "094411.065000", "094413.065000", "094415.065000", "094417.065000", "094419.065000", "094421.065000", "094423.065000", "094425.065000", "094427.065000", "094429.065000", "094431.065000", "094433.065000", "094435.065000", "094437.065000", "094439.065000", "094441.065000", "094443.065000", "094445.065000", "094447.065000", "094449.065000", "094451.065000", "094453.065000", "094455.065000", "094457.065000", "094459.065000", "094501.065000", "094503.065000", "094505.065000", "094507.065000", "094509.065000", "094511.065000", "094513.065000", "094515.065000", "094517.065000", "094519.065000", "094521.065000", "094523.065000", "094525.065000", "094527.065000", "094529.065000", "094531.065000", "094533.065000", "094535.065000", "094537.065000", "094539.065000", "094541.065000", "094543.065000", "094545.065000", "094547.065000", "094549.065000", "094551.065000", "094553.065000", "094555.065000", "094557.065000", "094559.065000", "094601.065000", "094603.065000", "094605.065000", "094607.065000", "094609.065000", "094611.065000", "094613.065000", "094615.065000", "094617.065000", "094619.065000", "094621.065000", "094623.065000", "094625.065000", "094627.065000", "094629.065000", "094631.065000", "094633.065000", "094635.065000", "094637.065000", "094639.065000", "094641.065000", "094643.065000", "094645.065000", "094647.065000", "094649.065000", "094651.065000", "094653.065000", "094655.065000", "094657.065000", "094659.065000", "094701.065000", "094703.065000", "094705.065000", "094707.065000", "094709.065000", "094711.065000", "094713.065000", "094715.065000", "094717.065000", "094719.065000", "094721.065000", "094723.065000", "094725.065000", "094727.065000", "094729.065000", "094731.065000", "094733.065000", "094735.065000", "094737.065000", "094739.065000", "094741.065000", "094743.065000", "094745.065000", "094747.065000", "094749.065000", "094751.065000", "094753.065000", "094755.065000", "094757.065000", "094759.065000", "094801.065000", "094803.065000", "094805.065000", "094807.065000", "094809.065000", "094811.065000", "094813.065000", "094815.065000", "094817.065000", "094819.065000", "094821.065000", "094823.065000", "094825.065000", "094827.065000", "094829.065000", "094831.065000", "094833.065000", "094835.065000", "094837.065000", "094839.065000", "094841.065000"],
      "ContentTime": ["093227.562000", "093227.565000", "093227.567000", "093227.569000", "093227.571000", "093227.573000", "093227.575000", "093227.577000", "093227.579000", "093227.581000", "093227.583000", "093227.585000", "093227.587000", "093227.588000", "093227.590000", "093227.592000", "093227.594000", "093227.596000", "093227.598000", "093227.600000", "093227.602000", "093227.604000", "093227.606000", "093227.617000", "093227.619000", "093227.623000", "093307.556000", "093307.558000", "093307.560000", "093307.562000", "093307.564000", "093307.566000", "093307.568000", "093307.570000", "093307.572000", "093307.574000", "093307.576000", "093307.577000", "093307.579000", "093307.581000", "093307.583000", "093307.585000", "093307.587000", "093307.589000", "093307.591000", "093307.593000", "093347.557000", "093347.559000", "093347.561000", "093347.563000", "093347.565000", "093347.567000", "093347.569000", "093347.571000", "093347.573000", "093347.575000", "093347.577000", "093347.579000", "093347.580000", "093347.582000", "093347.584000", "093347.586000", "093347.588000", "093347.591000", "093347.592000", "093347.594000", "093427.557000", "093427.559000", "093427.561000", "093427.563000", "093427.565000", "093427.567000", "093427.569000", "093427.571000", "093427.573000", "093427.575000", "093427.576000", "093427.578000", "093427.580000", "093427.582000", "093427.584000", "093427.586000", "093427.588000", "093427.590000", "093427.592000", "093427.594000", "093507.556000", "093507.558000", "093507.560000", "093507.562000", "093507.564000", "093507.566000", "093507.568000", "093507.570000", "093507.572000", "093507.574000", "093507.576000", "093507.578000", "093507.579000", "093507.581000", "093507.583000", "093507.585000", "093507.587000", "093507.589000", "093507.591000", "093507.593000", "093547.557000", "093547.559000", "093547.561000", "093547.563000", "093547.565000", "093547.567000", "093547.569000", "093547.571000", "093547.573000", "093547.575000", "093547.577000", "093547.579000", "093547.581000", "093547.582000", "093547.584000", "093547.586000", "093547.588000", "093547.590000", "093547.592000", "093547.594000", "093627.557000", "093627.559000", "093627.561000", "093627.563000", "093627.565000", "093627.567000", "093627.569000", "093627.571000", "093627.573000", "093627.575000", "093627.577000", "093627.579000", "093627.581000", "093627.582000", "093627.584000", "093627.586000", "093627.588000", "093627.590000", "093627.592000", "093627.594000", "093707.556000", "093707.558000", "093707.560000", "093707.562000", "093707.564000", "093707.566000", "093707.568000", "093707.570000", "093707.572000", "093707.574000", "093707.576000", "093707.578000", "093707.580000", "093707.581000", "093707.584000", "093707.585000", "093707.587000", "093707.589000", "093707.591000", "093707.593000", "093747.556000", "093747.558000", "093747.560000", "093747.562000", "093747.564000", "093747.566000", "093747.568000", "093747.570000", "093747.572000", "093747.574000", "093747.576000", "093747.578000", "093747.579000", "093747.581000", "093747.583000", "093747.585000", "093747.587000", "093747.589000", "093747.591000", "093747.593000", "093827.557000", "093827.559000", "093827.561000", "093827.563000", "093827.565000", "093827.567000", "093827.569000", "093827.571000", "093827.573000", "093827.575000", "093827.577000", "093827.579000", "093827.581000", "093827.582000", "093827.585000", "093827.587000", "093827.589000", "093827.591000", "093827.592000", "093827.594000", "093907.557000", "093907.559000", "093907.561000", "093907.563000", "093907.565000", "093907.567000", "093907.569000", "093907.571000", "093907.573000", "093907.575000", "093907.577000", "093907.579000", "093907.580000", "093907.582000", "093907.584000", "093907.586000", "093907.588000", "093907.590000", "093907.592000", "093907.594000", "093947.556000", "093947.558000", "093947.560000", "093947.562000", "093947.564000", "093947.566000", "093947.568000", "093947.570000", "093947.572000", "093947.574000", "093947.576000", "093947.578000", "093947.580000", "093947.582000", "093947.584000", "093947.586000", "093947.588000", "093947.590000", "093947.592000", "093947.593000", "094027.557000", "094027.559000", "094027.561000", "094027.563000", "094027.565000", "094027.567000", "094027.569000", "094027.571000", "094027.573000", "094027.584000", "094027.586000", "094027.588000", "094027.590000", "094027.592000", "094027.594000", "094027.596000", "094027.598000", "094027.600000", "094027.602000", "094027.604000", "094107.557000", "094107.559000", "094107.561000", "094107.563000", "094107.565000", "094107.567000", "094107.569000", "094107.571000", "094107.573000", "094107.574000", "094107.577000", "094107.579000", "094107.581000", "094107.583000", "094107.584000", "094107.586000", "094107.595000", "094107.597000", "094107.599000", "094107.601000", "094147.556000", "094147.558000", "094147.560000", "094147.562000", "094147.564000", "094147.566000", "094147.568000", "094147.570000", "094147.572000", "094147.574000", "094147.576000", "094147.578000", "094147.580000", "094147.582000", "094147.584000", "094147.586000", "094147.588000", "094147.589000", "094147.591000", "094147.593000", "094227.556000", "094227.558000", "094227.560000", "094227.562000", "094227.564000", "094227.566000", "094227.568000", "094227.570000", "094227.572000", "094227.574000", "094227.576000", "094227.578000", "094227.580000", "094227.582000", "094227.592000", "094227.594000", "094227.596000", "094227.598000", "094227.600000", "094227.602000", "094307.557000", "094307.559000", "094307.561000", "094307.563000", "094307.577000", "094307.579000", "094307.581000", "094307.583000", "094307.585000", "094307.587000", "094307.589000", "094307.591000", "094307.593000", "094307.595000", "094307.597000", "094307.599000", "094307.601000", "094307.603000", "094307.605000", "094307.607000", "094347.557000", "094347.559000", "094347.561000", "094347.563000", "094347.565000", "094347.567000", "094347.569000", "094347.571000", "094347.573000", "094347.575000", "094347.577000", "094347.579000", "094347.580000", "094347.582000", "094347.584000", "094347.587000", "094347.588000", "094347.590000", "094347.592000", "094347.594000", "094427.556000", "094427.558000", "094427.560000", "094427.562000", "094427.564000", "094427.566000", "094427.568000", "094427.570000", "094427.572000", "094427.574000", "094427.576000", "094427.578000", "094427.579000", "094427.581000", "094427.583000", "094427.585000", "094427.587000", "094427.589000", "094427.591000", "094427.593000", "094507.557000", "094507.559000", "094507.561000", "094507.563000", "094507.565000", "094507.567000", "094507.569000", "094507.571000", "094507.573000", "094507.575000", "094507.577000", "094507.579000", "094507.581000", "094507.583000", "094507.585000", "094507.587000", "094507.589000", "094507.590000", "094507.593000", "094507.594000", "094547.557000", "094547.559000", "094547.561000", "094547.563000", "094547.565000", "094547.567000", "094547.569000", "094547.571000", "094547.573000", "094547.574000", "094547.576000", "094547.578000", "094547.580000", "094547.582000", "094547.584000", "094547.586000", "094547.588000", "094547.590000", "094547.592000", "094547.594000", "094627.556000", "094627.558000", "094627.560000", "094627.562000", "094627.564000", "094627.566000", "094627.568000", "094627.570000", "094627.572000", "094627.574000", "094627.576000", "094627.578000", "094627.580000", "094627.582000", "094627.584000", "094627.586000", "094627.588000", "094627.589000", "094627.591000", "094627.593000", "094707.557000", "094707.559000", "094707.561000", "094707.563000", "094707.565000", "094707.567000", "094707.569000", "094707.571000", "094707.573000", "094707.575000", "094707.577000", "094707.579000", "094707.581000", "094707.582000", "094707.584000", "094707.586000", "094707.588000", "094707.590000", "094707.592000", "094707.594000", "094747.557000", "094747.559000", "094747.561000", "094747.563000", "094747.565000", "094747.567000", "094747.569000", "094747.571000", "094747.573000", "094747.575000", "094747.577000", "094747.579000", "094747.580000", "094747.582000", "094747.584000", "094747.586000", "094747.588000", "094747.590000", "094747.592000", "094747.594000", "094827.557000", "094827.559000", "094827.561000", "094827.563000", "094827.565000", "094827.567000", "094827.569000", "094827.571000", "094827.573000", "094827.575000", "094827.577000", "094827.579000", "094827.581000", "094827.583000", "094827.584000", "094827.586000", "094827.588000", "094827.590000", "094827.592000", "094827.594000", "094842.293000", "094842.295000", "094842.297000", "094842.299000", "094842.318000", "094842.320000", "094842.324000", "094842.327000"],
