{
  "AcquisitionMatrixPE": 64,
  "AcquisitionNumber": 1,
  "AcquisitionTime": "10:04:42.570000",
  "BandwidthPerPixelPhaseEncode": 25.202,
  "BaseResolution": 64,
  "BodyPartExamined": "BRAIN",
  "ConsistencyInfo": "N4_VD13C_LATEST_20121124",
  "ConversionSoftware": "dcm2niix",
  "ConversionSoftwareVersion": "v1.0.20201102",
  "DerivedVendorReportedEchoSpacing": 0.00061999,
  "DeviceSerialNumber": "45758",
  "DwellTime": 4.3e-06,
  "EchoTime": 0.03,
  "EchoTrainLength": 64,
  "EffectiveEchoSpacing": 0.00061999,
  "FlipAngle": 90,
  "ImageOrientationPatientDICOM": [0.999002, -0.0195593, -0.0401495, 0.0139496, 0.990676, -0.135525],
  "ImageType": [
    "ORIGINAL",
    "PRIMARY",
    "M",
    "ND",
    "MOSAIC"
],
  "ImagingFrequency": 123.2,
  "InPlanePhaseEncodingDirectionDICOM": "ROW",
  "InstitutionAddress": "Street StreetNo,City /652E4B/,District,KR,ZIP",
  "InstitutionName": "DGMIF",
  "InstitutionalDepartmentName": "Department",
  "MRAcquisitionType": "2D",
  "MagneticFieldStrength": 3,
  "Manufacturer": "Siemens",
  "ManufacturersModelName": "Skyra",
  "Modality": "MR",
  "PartialFourier": 1,
  "PatientPosition": "HFS",
  "PercentPhaseFOV": 100,
  "PercentSampling": 100,
  "PhaseEncodingDirection": "i",
  "PhaseEncodingSteps": 64,
  "PhaseResolution": 1,
  "PixelBandwidth": 1815,
  "ProcedureStepDescription": "DGMIF^DGIST_Jeon",
  "ProtocolName": "EPI_DGIST_3",
  "PulseSequenceDetails": "%SiemensSeq%\\ep2d_bold",
  "ReceiveCoilActiveElements": "HC1-7",
  "ReceiveCoilName": "HeadNeck_64",
  "ReconMatrixPE": 64,
  "RepetitionTime": 2,
  "SAR": 0.123354,
  "ScanOptions": "FS",
  "ScanningSequence": "EP",
  "SequenceName": "*epfid2d1_64",
  "SequenceVariant": "SK",
  "SeriesDescription": "EPI_DGIST_3",
  "SeriesNumber": 4,
  "ShimSetting": [-9789, -13652, -8205, 132, -417, -440, -70, 15],
  "SliceThickness": 4,
  "SliceTiming": [0.99, 0, 1.055, 0.0675, 1.1225, 0.1325, 1.1875, 0.1975, 1.255, 0.265, 1.32, 0.33, 1.385, 0.395, 1.4525, 0.4625, 1.5175, 0.5275, 1.585, 0.595, 1.65, 0.66, 1.715, 0.725, 1.7825, 0.7925, 1.8475, 0.8575, 1.915, 0.925],
  "SoftwareVersions": "syngo MR D13C",
  "SpacingBetweenSlices": 4.8,
  "StationName": "AWP45758",
  "TaskName": "asrt",
  "TotalReadoutTime": 0.0390594,
  "TxRefAmp": 324.456,
  "dcmmeta_affine": [
    [-2.99700665473938, 0.04184882715344429, -0.20364437997341156, 95.37294006347656],
    [0.058678038418293, 2.972027063369751, -0.6471846103668213, -107.43185424804688],
    [-0.12044847756624222, 0.4065762758255005, 4.751808166503906, -83.9657211303711],
    [0.0, 0.0, 0.0, 1.0]
],
  "dcmmeta_reorient_transform": [
    [0.0, -1.0, 0.0, 63.0],
    [1.0, 0.0, 0.0, 0.0],
    [0.0, 0.0, 1.0, 0.0],
    [0.0, 0.0, 0.0, 1.0]
],
  "dcmmeta_shape": [64, 64, 30, 364],
  "dcmmeta_slice_dim": 2,
  "dcmmeta_version": 0.6,
  "global": {
    "const": {
      "AcquisitionMatrix": [0, 64, 64, 0],
      "AngioFlag": "N",
      "BitsAllocated": 16,
      "BitsStored": 12,
      "BodyPartExamined": "BRAIN",
      "Columns": 384,
      "EchoNumbers": 1,
      "EchoTime": 30.0,
      "EchoTrainLength": 64,
      "FlipAngle": 90.0,
      "HighBit": 11,
      "ImageOrientationPatient": [0.99900222731144, -0.0195593459031, -0.0401494933297, 0.01394960948976, 0.99067566260755, -0.1355254216455],
      "ImagePositionPatient": [-584.22629587887, -545.94167941387, 25.972541614068],
      "ImageType": [
        "ORIGINAL",
        "PRIMARY",
        "M",
        "ND",
        "MOSAIC"
],
      "ImagedNucleus": "1H",
      "ImagingFrequency": 123.200197,
      "InPlanePhaseEncodingDirection": "ROW",
      "MRAcquisitionType": "2D",
      "MagneticFieldStrength": 3.0,
      "Manufacturer": "SIEMENS",
      "ManufacturerModelName": "Skyra",
      "Modality": "MR",
      "NumberOfAverages": 1.0,
      "NumberOfPhaseEncodingSteps": 64,
      "PercentPhaseFieldOfView": 100.0,
      "PercentSampling": 100.0,
      "PerformedProcedureStepStartTime": "091116.131000",
      "PhotometricInterpretation": "MONOCHROME2",
      "PixelBandwidth": 1815.0,
      "PixelRepresentation": 0,
      "PixelSpacing": [3.0, 3.0],
      "ProtocolName": "EPI_DGIST_3",
      "RepetitionTime": 2000.0,
      "Rows": 384,
      "SAR": 0.12335425627351,
      "SamplesPerPixel": 1,
      "ScanOptions": "FS",
      "ScanningSequence": "EP",
      "SequenceName": "*epfid2d1_64",
      "SequenceVariant": "SK",
      "SeriesDescription": "EPI_DGIST_3",
      "SeriesNumber": 4,
      "SeriesTime": "100535.747000",
      "SliceLocation": -72.683943275409,
      "SliceThickness": 4.0,
      "SmallestImagePixelValue": 0,
      "SoftwareVersions": "syngo MR D13C",
      "SpacingBetweenSlices": 4.7999998575597,
      "SpecificCharacterSet": "ISO_IR 100",
      "StudyID": "1",
      "StudyTime": "091116.015000",
      "TimeOfLastCalibration": ["123723.000000", "123723.000000"],
      "TransmitCoilName": "Body",
      "VariableFlipAngleFlag": "N",
      "WindowCenterWidthExplanation": "Algo1",
      "dBdt": 0.0},
    "slices": {}
  },
  "time": {
    "samples": {
      "AcquisitionNumber": [1, 2, 3, 4, 5, 6, 7, 8, 9, 10, 11, 12, 13, 14, 15, 16, 17, 18, 19, 20, 21, 22, 23, 24, 25, 26, 27, 28, 29, 30, 31, 32, 33, 34, 35, 36, 37, 38, 39, 40, 41, 42, 43, 44, 45, 46, 47, 48, 49, 50, 51, 52, 53, 54, 55, 56, 57, 58, 59, 60, 61, 62, 63, 64, 65, 66, 67, 68, 69, 70, 71, 72, 73, 74, 75, 76, 77, 78, 79, 80, 81, 82, 83, 84, 85, 86, 87, 88, 89, 90, 91, 92, 93, 94, 95, 96, 97, 98, 99, 100, 101, 102, 103, 104, 105, 106, 107, 108, 109, 110, 111, 112, 113, 114, 115, 116, 117, 118, 119, 120, 121, 122, 123, 124, 125, 126, 127, 128, 129, 130, 131, 132, 133, 134, 135, 136, 137, 138, 139, 140, 141, 142, 143, 144, 145, 146, 147, 148, 149, 150, 151, 152, 153, 154, 155, 156, 157, 158, 159, 160, 161, 162, 163, 164, 165, 166, 167, 168, 169, 170, 171, 172, 173, 174, 175, 176, 177, 178, 179, 180, 181, 182, 183, 184, 185, 186, 187, 188, 189, 190, 191, 192, 193, 194, 195, 196, 197, 198, 199, 200, 201, 202, 203, 204, 205, 206, 207, 208, 209, 210, 211, 212, 213, 214, 215, 216, 217, 218, 219, 220, 221, 222, 223, 224, 225, 226, 227, 228, 229, 230, 231, 232, 233, 234, 235, 236, 237, 238, 239, 240, 241, 242, 243, 244, 245, 246, 247, 248, 249, 250, 251, 252, 253, 254, 255, 256, 257, 258, 259, 260, 261, 262, 263, 264, 265, 266, 267, 268, 269, 270, 271, 272, 273, 274, 275, 276, 277, 278, 279, 280, 281, 282, 283, 284, 285, 286, 287, 288, 289, 290, 291, 292, 293, 294, 295, 296, 297, 298, 299, 300, 301, 302, 303, 304, 305, 306, 307, 308, 309, 310, 311, 312, 313, 314, 315, 316, 317, 318, 319, 320, 321, 322, 323, 324, 325, 326, 327, 328, 329, 330, 331, 332, 333, 334, 335, 336, 337, 338, 339, 340, 341, 342, 343, 344, 345, 346, 347, 348, 349, 350, 351, 352, 353, 354, 355, 356, 357, 358, 359, 360, 361, 362, 363, 364],
      "AcquisitionTime": ["100442.570000", "100444.570000", "100446.570000", "100448.570000", "100450.570000", "100452.570000", "100454.570000", "100456.570000", "100458.570000", "100500.570000", "100502.570000", "100504.570000", "100506.570000", "100508.570000", "100510.570000", "100512.570000", "100514.570000", "100516.570000", "100518.570000", "100520.570000", "100522.570000", "100524.570000", "100526.570000", "100528.570000", "100530.570000", "100532.570000", "100534.570000", "100536.570000", "100538.570000", "100540.570000", "100542.570000", "100544.570000", "100546.570000", "100548.570000", "100550.570000", "100552.570000", "100554.570000", "100556.570000", "100558.570000", "100600.570000", "100602.570000", "100604.570000", "100606.570000", "100608.570000", "100610.570000", "100612.570000", "100614.570000", "100616.570000", "100618.570000", "100620.570000", "100622.570000", "100624.570000", "100626.570000", "100628.570000", "100630.570000", "100632.570000", "100634.570000", "100636.570000", "100638.570000", "100640.570000", "100642.570000", "100644.570000", "100646.570000", "100648.570000", "100650.570000", "100652.570000", "100654.570000", "100656.570000", "100658.570000", "100700.570000", "100702.570000", "100704.570000", "100706.570000", "100708.570000", "100710.570000", "100712.570000", "100714.570000", "100716.570000", "100718.570000", "100720.570000", "100722.570000", "100724.570000", "100726.570000", "100728.570000", "100730.570000", "100732.570000", "100734.570000", "100736.570000", "100738.570000", "100740.570000", "100742.570000", "100744.570000", "100746.570000", "100748.570000", "100750.570000", "100752.570000", "100754.570000", "100756.570000", "100758.570000", "100800.570000", "100802.570000", "100804.570000", "100806.570000", "100808.570000", "100810.570000", "100812.570000", "100814.570000", "100816.570000", "100818.570000", "100820.570000", "100822.570000", "100824.570000", "100826.572500", "100828.572500", "100830.572500", "100832.572500", "100834.572500", "100836.572500", "100838.572500", "100840.572500", "100842.572500", "100844.572500", "100846.572500", "100848.572500", "100850.572500", "100852.572500", "100854.572500", "100856.572500", "100858.572500", "100900.572500", "100902.572500", "100904.572500", "100906.572500", "100908.572500", "100910.572500", "100912.572500", "100914.572500", "100916.572500", "100918.572500", "100920.572500", "100922.572500", "100924.572500", "100926.572500", "100928.572500", "100930.572500", "100932.572500", "100934.572500", "100936.572500", "100938.572500", "100940.572500", "100942.572500", "100944.572500", "100946.572500", "100948.572500", "100950.572500", "100952.572500", "100954.572500", "100956.572500", "100958.572500", "101000.572500", "101002.572500", "101004.572500", "101006.572500", "101008.572500", "101010.572500", "101012.572500", "101014.572500", "101016.572500", "101018.572500", "101020.572500", "101022.572500", "101024.572500", "101026.572500", "101028.572500", "101030.572500", "101032.572500", "101034.572500", "101036.572500", "101038.572500", "101040.572500", "101042.572500", "101044.572500", "101046.572500", "101048.572500", "101050.572500", "101052.572500", "101054.572500", "101056.572500", "101058.572500", "101100.572500", "101102.572500", "101104.572500", "101106.572500", "101108.572500", "101110.572500", "101112.572500", "101114.572500", "101116.572500", "101118.572500", "101120.572500", "101122.572500", "101124.572500", "101126.572500", "101128.572500", "101130.572500", "101132.572500", "101134.572500", "101136.572500", "101138.572500", "101140.572500", "101142.572500", "101144.572500", "101146.572500", "101148.572500", "101150.572500", "101152.572500", "101154.572500", "101156.572500", "101158.572500", "101200.572500", "101202.572500", "101204.572500", "101206.572500", "101208.572500", "101210.572500", "101212.572500", "101214.572500", "101216.572500", "101218.572500", "101220.572500", "101222.572500", "101224.572500", "101226.572500", "101228.572500", "101230.572500", "101232.572500", "101234.572500", "101236.572500", "101238.572500", "101240.572500", "101242.572500", "101244.572500", "101246.572500", "101248.572500", "101250.572500", "101252.572500", "101254.572500", "101256.572500", "101258.572500", "101300.572500", "101302.572500", "101304.572500", "101306.572500", "101308.572500", "101310.572500", "101312.572500", "101314.572500", "101316.572500", "101318.572500", "101320.572500", "101322.572500", "101324.572500", "101326.572500", "101328.572500", "101330.572500", "101332.572500", "101334.572500", "101336.572500", "101338.572500", "101340.572500", "101342.572500", "101344.572500", "101346.572500", "101348.572500", "101350.572500", "101352.572500", "101354.572500", "101356.572500", "101358.572500", "101400.572500", "101402.572500", "101404.572500", "101406.572500", "101408.572500", "101410.572500", "101412.572500", "101414.572500", "101416.572500", "101418.572500", "101420.572500", "101422.572500", "101424.572500", "101426.572500", "101428.572500", "101430.572500", "101432.572500", "101434.572500", "101436.572500", "101438.572500", "101440.572500", "101442.572500", "101444.572500", "101446.572500", "101448.572500", "101450.572500", "101452.572500", "101454.572500", "101456.572500", "101458.572500", "101500.572500", "101502.572500", "101504.572500", "101506.572500", "101508.572500", "101510.572500", "101512.572500", "101514.572500", "101516.572500", "101518.572500", "101520.572500", "101522.572500", "101524.572500", "101526.572500", "101528.572500", "101530.572500", "101532.572500", "101534.572500", "101536.572500", "101538.572500", "101540.572500", "101542.572500", "101544.572500", "101546.572500", "101548.572500", "101550.572500", "101552.572500", "101554.572500", "101556.572500", "101558.572500", "101600.572500", "101602.572500", "101604.572500", "101606.572500", "101608.572500", "101610.572500", "101612.572500", "101614.572500", "101616.572500", "101618.572500", "101620.572500", "101622.572500", "101624.572500", "101626.572500", "101628.572500", "101630.572500", "101632.572500", "101634.572500", "101636.572500", "101638.572500", "101640.572500", "101642.572500", "101644.572500", "101646.575000", "101648.575000"],
      "ContentTime": ["100535.750000", "100535.752000", "100535.754000", "100535.756000", "100535.758000", "100535.760000", "100535.762000", "100535.764000", "100535.766000", "100535.768000", "100535.770000", "100535.772000", "100535.774000", "100535.776000", "100535.778000", "100535.780000", "100535.782000", "100535.784000", "100535.786000", "100535.788000", "100535.790000", "100535.792000", "100535.794000", "100535.796000", "100535.797000", "100535.799000", "100615.744000", "100615.746000", "100615.761000", "100615.763000", "100615.765000", "100615.767000", "100615.769000", "100615.771000", "100615.773000", "100615.775000", "100615.777000", "100615.779000", "100615.781000", "100615.783000", "100615.785000", "100615.787000", "100615.789000", "100615.791000", "100615.793000", "100615.794000", "100655.744000", "100655.746000", "100655.748000", "100655.750000", "100655.752000", "100655.754000", "100655.756000", "100655.758000", "100655.760000", "100655.762000", "100655.764000", "100655.766000", "100655.768000", "100655.770000", "100655.772000", "100655.773000", "100655.775000", "100655.777000", "100655.779000", "100655.781000", "100735.745000", "100735.747000", "100735.749000", "100735.751000", "100735.753000", "100735.755000", "100735.757000", "100735.759000", "100735.761000", "100735.763000", "100735.765000", "100735.767000", "100735.769000", "100735.771000", "100735.773000", "100735.775000", "100735.777000", "100735.779000", "100735.780000", "100735.783000", "100815.746000", "100815.748000", "100815.750000", "100815.752000", "100815.754000", "100815.756000", "100815.758000", "100815.760000", "100815.762000", "100815.764000", "100815.766000", "100815.767000", "100815.769000", "100815.771000", "100815.773000", "100815.775000", "100815.777000", "100815.779000", "100815.781000", "100815.783000", "100855.744000", "100855.746000", "100855.748000", "100855.750000", "100855.752000", "100855.754000", "100855.756000", "100855.758000", "100855.760000", "100855.762000", "100855.764000", "100855.766000", "100855.768000", "100855.769000", "100855.771000", "100855.773000", "100855.775000", "100855.777000", "100855.779000", "100855.781000", "100935.745000", "100935.757000", "100935.759000", "100935.761000", "100935.763000", "100935.765000", "100935.767000", "100935.768000", "100935.770000", "100935.772000", "100935.774000", "100935.776000", "100935.778000", "100935.780000", "100935.782000", "100935.784000", "100935.786000", "100935.788000", "100935.790000", "100935.792000", "100955.745000", "100955.747000", "100955.749000", "100955.751000", "100955.753000", "100955.755000", "100955.757000", "100955.759000", "100955.761000", "100955.763000", "101035.744000", "101035.746000", "101035.748000", "101035.750000", "101035.752000", "101035.754000", "101035.756000", "101035.758000", "101035.760000", "101035.762000", "101035.764000", "101035.766000", "101035.768000", "101035.770000", "101035.772000", "101035.774000", "101035.776000", "101035.778000", "101035.780000", "101035.781000", "101115.744000", "101115.746000", "101115.748000", "101115.750000", "101115.752000", "101115.754000", "101115.756000", "101115.758000", "101115.760000", "101115.762000", "101115.764000", "101115.766000", "101115.768000", "101115.770000", "101115.772000", "101115.779000", "101115.781000", "101115.783000", "101115.785000", "101115.787000", "101155.745000", "101155.747000", "101155.749000", "101155.751000", "101155.753000", "101155.755000", "101155.757000", "101155.759000", "101155.761000", "101155.763000", "101155.765000", "101155.767000", "101155.769000", "101155.771000", "101155.773000", "101155.775000", "101155.777000", "101155.779000", "101155.781000", "101155.783000", "101235.745000", "101235.747000", "101235.749000", "101235.751000", "101235.753000", "101235.755000", "101235.757000", "101235.759000", "101235.761000", "101235.763000", "101235.765000", "101235.767000", "101235.769000", "101235.771000", "101235.773000", "101235.775000", "101235.777000", "101235.779000", "101235.781000", "101235.783000", "101315.744000", "101315.746000", "101315.748000", "101315.750000", "101315.752000", "101315.754000", "101315.756000", "101315.758000", "101315.760000", "101315.762000", "101315.764000", "101315.766000", "101315.768000", "101315.770000", "101315.772000", "101315.774000", "101315.776000", "101315.777000", "101315.779000", "101315.781000", "101355.744000", "101355.746000", "101355.748000", "101355.750000", "101355.752000", "101355.754000", "101355.756000", "101355.758000", "101355.760000", "101355.762000", "101355.764000", "101355.766000", "101355.768000", "101355.770000", "101355.772000", "101355.774000", "101355.776000", "101355.778000", "101355.780000", "101355.782000", "101435.745000", "101435.747000", "101435.749000", "101435.751000", "101435.753000", "101435.755000", "101435.757000", "101435.759000", "101435.761000", "101435.763000", "101435.765000", "101435.767000", "101435.769000", "101435.771000", "101435.773000", "101435.775000", "101435.777000", "101435.778000", "101435.780000", "101435.782000", "101515.744000", "101515.746000", "101515.748000", "101515.750000", "101515.752000", "101515.754000", "101515.756000", "101515.758000", "101515.760000", "101515.762000", "101515.764000", "101515.766000", "101515.768000", "101515.770000", "101515.772000", "101515.774000", "101515.776000", "101515.778000", "101515.780000", "101515.781000", "101555.744000", "101555.746000", "101555.748000", "101555.750000", "101555.752000", "101555.754000", "101555.756000", "101555.758000", "101555.760000", "101555.762000", "101555.764000", "101555.766000", "101555.768000", "101555.770000", "101555.772000", "101555.774000", "101555.776000", "101555.778000", "101555.779000", "101555.781000", "101635.745000", "101635.747000", "101635.749000", "101635.751000", "101635.753000", "101635.755000", "101635.757000", "101635.759000", "101635.761000", "101635.763000", "101635.765000", "101635.767000", "101635.769000", "101635.771000", "101635.773000", "101635.775000", "101635.777000", "101635.779000", "101635.781000", "101635.782000", "101650.527000", "101650.529000", "101650.531000", "101650.533000", "101650.535000", "101650.537000", "101650.539000", "101650.541000"],
      "InstanceCreationTime": ["100535.750000", "100535.752000", "100535.754000", "100535.756000", "100535.758000", "100535.760000", "100535.762000", "100535.764000", "100535.766000", "100535.768000", "100535.770000", "100535.772000", "100535.774000", "100535.776000", "100535.778000", "100535.780000", "100535.782000", "100535.784000", "100535.786000", "100535.788000", "100535.790000", "100535.792000", "100535.794000", "100535.796000", "100535.797000", "100535.799000", "100615.744000", "100615.746000", "100615.761000", "100615.763000", "100615.765000", "100615.767000", "100615.769000", "100615.771000", "100615.773000", "100615.775000", "100615.777000", "100615.779000", "100615.781000", "100615.783000", "100615.785000", "100615.787000", "100615.789000", "100615.791000", "100615.793000", "100615.794000", "100655.744000", "100655.746000", "100655.748000", "100655.750000", "100655.752000", "100655.754000", "100655.756000", "100655.758000", "100655.760000", "100655.762000", "100655.764000", "100655.766000", "100655.768000", "100655.770000", "100655.772000", "100655.773000", "100655.775000", "100655.777000", "100655.779000", "100655.781000", "100735.745000", "100735.747000", "100735.749000", "100735.751000", "100735.753000", "100735.755000", "100735.757000", "100735.759000", "100735.761000", "100735.763000", "100735.765000", "100735.767000", "100735.769000", "100735.771000", "100735.773000", "100735.775000", "100735.777000", "100735.779000", "100735.780000", "100735.783000", "100815.746000", "100815.748000", "100815.750000", "100815.752000", "100815.754000", "100815.756000", "100815.758000", "100815.760000", "100815.762000", "100815.764000", "100815.766000", "100815.767000", "100815.769000", "100815.771000", "100815.773000", "100815.775000", "100815.777000", "100815.779000", "100815.781000", "100815.783000", "100855.744000", "100855.746000", "100855.748000", "100855.750000", "100855.752000", "100855.754000", "100855.756000", "100855.758000", "100855.760000", "100855.762000", "100855.764000", "100855.766000", "100855.768000", "100855.769000", "100855.771000", "100855.773000", "100855.775000", "100855.777000", "100855.779000", "100855.781000", "100935.745000", "100935.757000", "100935.759000", "100935.761000", "100935.763000", "100935.765000", "100935.767000", "100935.768000", "100935.770000", "100935.772000", "100935.774000", "100935.776000", "100935.778000", "100935.780000", "100935.782000", "100935.784000", "100935.786000", "100935.788000", "100935.790000", "100935.792000", "100955.745000", "100955.747000", "100955.749000", "100955.751000", "100955.753000", "100955.755000", "100955.757000", "100955.759000", "100955.761000", "100955.763000", "101035.744000", "101035.746000", "101035.748000", "101035.750000", "101035.752000", "101035.754000", "101035.756000", "101035.758000", "101035.760000", "101035.762000", "101035.764000", "101035.766000", "101035.768000", "101035.770000", "101035.772000", "101035.774000", "101035.776000", "101035.778000", "101035.780000", "101035.781000", "101115.744000", "101115.746000", "101115.748000", "101115.750000", "101115.752000", "101115.754000", "101115.756000", "101115.758000", "101115.760000", "101115.762000", "101115.764000", "101115.766000", "101115.768000", "101115.770000", "101115.772000", "101115.779000", "101115.781000", "101115.783000", "101115.785000", "101115.787000", "101155.745000", "101155.747000", "101155.749000", "101155.751000", "101155.753000", "101155.755000", "101155.757000", "101155.759000", "101155.761000", "101155.763000", "101155.765000", "101155.767000", "101155.769000", "101155.771000", "101155.773000", "101155.775000", "101155.777000", "101155.779000", "101155.781000", "101155.783000", "101235.745000", "101235.747000", "101235.749000", "101235.751000", "101235.753000", "101235.755000", "101235.757000", "101235.759000", "101235.761000", "101235.763000", "101235.765000", "101235.767000", "101235.769000", "101235.771000", "101235.773000", "101235.775000", "101235.777000", "101235.779000", "101235.781000", "101235.783000", "101315.744000", "101315.746000", "101315.748000", "101315.750000", "101315.752000", "101315.754000", "101315.756000", "101315.758000", "101315.760000", "101315.762000", "101315.764000", "101315.766000", "101315.768000", "101315.770000", "101315.772000", "101315.774000", "101315.776000", "101315.777000", "101315.779000", "101315.781000", "101355.744000", "101355.746000", "101355.748000", "101355.750000", "101355.752000", "101355.754000", "101355.756000", "101355.758000", "101355.760000", "101355.762000", "101355.764000", "101355.766000", "101355.768000", "101355.770000", "101355.772000", "101355.774000", "101355.776000", "101355.778000", "101355.780000", "101355.782000", "101435.745000", "101435.747000", "101435.749000", "101435.751000", "101435.753000", "101435.755000", "101435.757000", "101435.759000", "101435.761000", "101435.763000", "101435.765000", "101435.767000", "101435.769000", "101435.771000", "101435.773000", "101435.775000", "101435.777000", "101435.778000", "101435.780000", "101435.782000", "101515.744000", "101515.746000", "101515.748000", "101515.750000", "101515.752000", "101515.754000", "101515.756000", "101515.758000", "101515.760000", "101515.762000", "101515.764000", "101515.766000", "101515.768000", "101515.770000", "101515.772000", "101515.774000", "101515.776000", "101515.778000", "101515.780000", "101515.781000", "101555.744000", "101555.746000", "101555.748000", "101555.750000", "101555.752000", "101555.754000", "101555.756000", "101555.758000", "101555.760000", "101555.762000", "101555.764000", "101555.766000", "101555.768000", "101555.770000", "101555.772000", "101555.774000", "101555.776000", "101555.778000", "101555.779000", "101555.781000", "101635.745000", "101635.747000", "101635.749000", "101635.751000", "101635.753000", "101635.755000", "101635.757000", "101635.759000", "101635.761000", "101635.763000", "101635.765000", "101635.767000", "101635.769000", "101635.771000", "101635.773000", "101635.775000", "101635.777000", "101635.779000", "101635.781000", "101635.782000", "101650.527000", "101650.529000", "101650.531000", "101650.533000", "101650.535000", "101650.537000", "101650.539000", "101650.541000"],
      "InstanceNumber": [1, 2, 3, 4, 5, 6, 7, 8, 9, 10, 11, 12, 13, 14, 15, 16, 17, 18, 19, 20, 21, 22, 23, 24, 25, 26, 27, 28, 29, 30, 31, 32, 33, 34, 35, 36, 37, 38, 39, 40, 41, 42, 43, 44, 45, 46, 47, 48, 49, 50, 51, 52, 53, 54, 55, 56, 57, 58, 59, 60, 61, 62, 63, 64, 65, 66, 67, 68, 69, 70, 71, 72, 73, 74, 75, 76, 77, 78, 79, 80, 81, 82, 83, 84, 85, 86, 87, 88, 89, 90, 91, 92, 93, 94, 95, 96, 97, 98, 99, 100, 101, 102, 103, 104, 105, 106, 107, 108, 109, 110, 111, 112, 113, 114, 115, 116, 117, 118, 119, 120, 121, 122, 123, 124, 125, 126, 127, 128, 129, 130, 131, 132, 133, 134, 135, 136, 137, 138, 139, 140, 141, 142, 143, 144, 145, 146, 147, 148, 149, 150, 151, 152, 153, 154, 155, 156, 157, 158, 159, 160, 161, 162, 163, 164, 165, 166, 167, 168, 169, 170, 171, 172, 173, 174, 175, 176, 177, 178, 179, 180, 181, 182, 183, 184, 185, 186, 187, 188, 189, 190, 191, 192, 193, 194, 195, 196, 197, 198, 199, 200, 201, 202, 203, 204, 205, 206, 207, 208, 209, 210, 211, 212, 213, 214, 215, 216, 217, 218, 219, 220, 221, 222, 223, 224, 225, 226, 227, 228, 229, 230, 231, 232, 233, 234, 235, 236, 237, 238, 239, 240, 241, 242, 243, 244, 245, 246, 247, 248, 249, 250, 251, 252, 253, 254, 255, 256, 257, 258, 259, 260, 261, 262, 263, 264, 265, 266, 267, 268, 269, 270, 271, 272, 273, 274, 275, 276, 277, 278, 279, 280, 281, 282, 283, 284, 285, 286, 287, 288, 289, 290, 291, 292, 293, 294, 295, 296, 297, 298, 299, 300, 301, 302, 303, 304, 305, 306, 307, 308, 309, 310, 311, 312, 313, 314, 315, 316, 317, 318, 319, 320, 321, 322, 323, 324, 325, 326, 327, 328, 329, 330, 331, 332, 333, 334, 335, 336, 337, 338, 339, 340, 341, 342, 343, 344, 345, 346, 347, 348, 349, 350, 351, 352, 353, 354, 355, 356, 357, 358, 359, 360, 361, 362, 363, 364],
      "LargestImagePixelValue": [2846, 2784, 2797, 2755, 2767, 2762, 2787, 2767, 2800, 2777, 2774, 2777, 2770, 2776, 2751, 2782, 2749, 2750, 2766, 2744, 2763, 2741, 2768, 2743, 2779, 2743, 2739, 2730, 2756, 2751, 2732, 2752, 2730, 2712, 2758, 2729, 2747, 2735, 2752, 2751, 2740, 2753, 2752, 2748, 2754, 2757, 2767, 2739, 2751, 2745, 2747, 2753, 2760, 2752, 2746, 2772, 2758, 2767, 2751, 2755, 2747, 2759, 2741, 2753, 2771, 2750, 2758, 2737, 2760, 2739, 2747, 2751, 2734, 2755, 2759, 2752, 2766, 2741, 2761, 2734, 2760, 2747, 2758, 2751, 2777, 2746, 2759, 2754, 2748, 2759, 2740, 2765, 2753, 2755, 2766, 2747, 2755, 2760, 2754, 2762, 2738, 2774, 2749, 2780, 2751, 2768, 2770, 2764, 2775, 2753, 2781, 2761, 2786, 2750, 2775, 2763, 2789, 2756, 2790, 2766, 2763, 2779, 2759, 2770, 2761, 2770, 2758, 2796, 2764, 2778, 2768, 2780, 2779, 2761, 2759, 2751, 2788, 2766, 2777, 2747, 2784, 2748, 2790, 2765, 2778, 2760, 2776, 2756, 2776, 2768, 2753, 2766, 2771, 2762, 2781, 2765, 2746, 2767, 2761, 2783, 2751, 2773, 2743, 2778, 2777, 2748, 2773, 2735, 2792, 2753, 2787, 2764, 2783, 2762, 2784, 2769, 2760, 2781, 2744, 2796, 2737, 2777, 2736, 2789, 2763, 2784, 2769, 2767, 2787, 2755, 2780, 2770, 2794, 2761, 2791, 2771, 2793, 2758, 2802, 2789, 2779, 2784, 2780, 2785, 2773, 2777, 2765, 2811, 2759, 2805, 2746, 2797, 2766, 2780, 2786, 2774, 2770, 2770, 2748, 2786, 2761, 2801, 2757, 2781, 2765, 2808, 2759, 2802, 2781, 2788, 2775, 2800, 2774, 2794, 2777, 2796, 2783, 2794, 2783, 2805, 2771, 2762, 2704, 2707, 2745, 2735, 2748, 2725, 2749, 2760, 2738, 2769, 2734, 2770, 2742, 2754, 2745, 2766, 2728, 2777, 2722, 2779, 2756, 2765, 2755, 2759, 2762, 2742, 2766, 2734, 3017, 2768, 2738, 2741, 2729, 2769, 2746, 2762, 2765, 2766, 2778, 2750, 2793, 2749, 2779, 2768, 2808, 2767, 2773, 2762, 2784, 2773, 2749, 2796, 2781, 2798, 2778, 2793, 2800, 2773, 2757, 2767, 2756, 2776, 2785, 2777, 2795, 2754, 2785, 2754, 2769, 2788, 2755, 2789, 2754, 2783, 2770, 2773, 2771, 2768, 2804, 2763, 2798, 2758, 2786, 2787, 2770, 2776, 2753, 2797, 2747, 2794, 2764, 2762, 2790, 2749, 2793, 2753, 2786, 2761, 2779, 2777, 2773, 2776, 2752, 2851, 2729, 2749, 2747, 2777, 2753, 2769, 2766, 2746, 2774, 2771, 2807, 2756, 2789, 2750, 2777, 2756, 2769, 2749],
