{
  "AcquisitionMatrixPE": 64,
  "AcquisitionNumber": 1,
  "AcquisitionTime": "11:01:1.005000",
  "BandwidthPerPixelPhaseEncode": 25.202,
  "BaseResolution": 64,
  "BodyPartExamined": "BRAIN",
  "ConsistencyInfo": "N4_VD13C_LATEST_20121124",
  "ConversionSoftware": "dcm2niix",
  "ConversionSoftwareVersion": "v1.0.20201102",
  "DerivedVendorReportedEchoSpacing": 0.00061999,
  "DeviceSerialNumber": "45758",
  "DwellTime": 4.3e-06,
  "EchoTime": 0.03,
  "EchoTrainLength": 64,
  "EffectiveEchoSpacing": 0.00061999,
  "FlipAngle": 90,
  "ImageOrientationPatientDICOM": [0.99976, 0.0151486, 0.0158212, -0.0139602, 0.997256, -0.0726995],
  "ImageType": [
    "ORIGINAL",
    "PRIMARY",
    "M",
    "ND",
    "MOSAIC"
],
  "ImagingFrequency": 123.2,
  "InPlanePhaseEncodingDirectionDICOM": "ROW",
  "InstitutionAddress": "Street StreetNo,City /652E4B/,District,KR,ZIP",
  "InstitutionName": "DGMIF",
  "InstitutionalDepartmentName": "Department",
  "MRAcquisitionType": "2D",
  "MagneticFieldStrength": 3,
  "Manufacturer": "Siemens",
  "ManufacturersModelName": "Skyra",
  "Modality": "MR",
  "PartialFourier": 1,
  "PatientPosition": "HFS",
  "PercentPhaseFOV": 100,
  "PercentSampling": 100,
  "PhaseEncodingDirection": "i",
  "PhaseEncodingSteps": 64,
  "PhaseResolution": 1,
  "PixelBandwidth": 1815,
  "ProcedureStepDescription": "DGMIF^DGIST_Jeon",
  "ProtocolName": "EPI_DGIST_1",
  "PulseSequenceDetails": "%SiemensSeq%\\ep2d_bold",
  "ReceiveCoilActiveElements": "HC1-7",
  "ReceiveCoilName": "HeadNeck_64",
  "ReconMatrixPE": 64,
  "RepetitionTime": 2,
  "SAR": 0.131435,
  "ScanOptions": "FS",
  "ScanningSequence": "EP",
  "SequenceName": "*epfid2d1_64",
  "SequenceVariant": "SK",
  "SeriesDescription": "EPI_DGIST_1",
  "SeriesNumber": 2,
  "ShimSetting": [-9722, -13625, -8151, 129, -398, -233, -4, -256],
  "SliceThickness": 4,
  "SliceTiming": [0.99, 0, 1.055, 0.065, 1.1225, 0.1325, 1.1875, 0.1975, 1.2525, 0.265, 1.32, 0.33, 1.385, 0.395, 1.4525, 0.4625, 1.5175, 0.5275, 1.5825, 0.595, 1.65, 0.66, 1.715, 0.725, 1.7825, 0.7925, 1.8475, 0.8575, 1.9125, 0.925],
  "SoftwareVersions": "syngo MR D13C",
  "SpacingBetweenSlices": 4.8,
  "StationName": "AWP45758",
  "TaskName": "asrt",
  "TotalReadoutTime": 0.0390594,
  "TxRefAmp": 314.499,
  "dcmmeta_affine": [
    [-2.9992802143096924, -0.04188057407736778, 0.0810195654630661, 95.04945373535156],
    [-0.045445799827575684, 2.9917685985565186, -0.34781378507614136, -114.44038391113281],
    [0.04746357351541519, 0.21809855103492737, 4.786696434020996, -88.77650451660156],
    [0.0, 0.0, 0.0, 1.0]
],
  "dcmmeta_reorient_transform": [
    [0.0, -1.0, 0.0, 63.0],
    [1.0, 0.0, 0.0, 0.0],
    [0.0, 0.0, 1.0, 0.0],
    [0.0, 0.0, 0.0, 1.0]
],
  "dcmmeta_shape": [64, 64, 30, 514],
  "dcmmeta_slice_dim": 2,
  "dcmmeta_version": 0.6,
  "global": {
    "const": {
      "AcquisitionMatrix": [0, 64, 64, 0],
      "AngioFlag": "N",
      "BitsAllocated": 16,
      "BitsStored": 12,
      "BodyPartExamined": "BRAIN",
      "Columns": 384,
      "EchoNumbers": 1,
      "EchoTime": 30.0,
      "EchoTrainLength": 64,
      "FlipAngle": 90.0,
      "HighBit": 11,
      "ImageOrientationPatient": [0.99976007614588, 0.01514859945917, 0.01582119082814, -0.0139601909519, 0.99725618253403, -0.0726995148969],
      "ImagePositionPatient": [-565.59492548969, -559.99532837828, -47.734697885241],
      "ImageType": [
        "ORIGINAL",
        "PRIMARY",
        "M",
        "ND",
        "MOSAIC"
],
      "ImagedNucleus": "1H",
      "ImagingFrequency": 123.200162,
      "InPlanePhaseEncodingDirection": "ROW",
      "MRAcquisitionType": "2D",
      "MagneticFieldStrength": 3.0,
      "Manufacturer": "SIEMENS",
      "ManufacturerModelName": "Skyra",
      "Modality": "MR",
      "NumberOfAverages": 1.0,
      "NumberOfPhaseEncodingSteps": 64,
      "PercentPhaseFieldOfView": 100.0,
      "PercentSampling": 100.0,
      "PerformedProcedureStepStartTime": "105252.044000",
      "PhotometricInterpretation": "MONOCHROME2",
      "PixelBandwidth": 1815.0,
      "PixelRepresentation": 0,
      "PixelSpacing": [3.0, 3.0],
      "ProtocolName": "EPI_DGIST_1",
      "RepetitionTime": 2000.0,
      "Rows": 384,
      "SAR": 0.13143544564773,
      "SamplesPerPixel": 1,
      "ScanOptions": "FS",
      "ScanningSequence": "EP",
      "SequenceName": "*epfid2d1_64",
      "SequenceVariant": "SK",
      "SeriesDescription": "EPI_DGIST_1",
      "SeriesNumber": 2,
      "SeriesTime": "110151.954000",
      "SliceLocation": -78.633612962814,
      "SliceThickness": 4.0,
      "SmallestImagePixelValue": 0,
      "SoftwareVersions": "syngo MR D13C",
      "SpacingBetweenSlices": 4.80000003653,
      "SpecificCharacterSet": "ISO_IR 100",
      "StudyID": "1",
      "StudyTime": "105251.985000",
      "TimeOfLastCalibration": ["123723.000000", "123723.000000"],
      "TransmitCoilName": "Body",
      "VariableFlipAngleFlag": "N",
      "WindowCenterWidthExplanation": "Algo1",
      "dBdt": 0.0},
    "slices": {}
  },
  "time": {
    "samples": {
      "AcquisitionNumber": [1, 2, 3, 4, 5, 6, 7, 8, 9, 10, 11, 12, 13, 14, 15, 16, 17, 18, 19, 20, 21, 22, 23, 24, 25, 26, 27, 28, 29, 30, 31, 32, 33, 34, 35, 36, 37, 38, 39, 40, 41, 42, 43, 44, 45, 46, 47, 48, 49, 50, 51, 52, 53, 54, 55, 56, 57, 58, 59, 60, 61, 62, 63, 64, 65, 66, 67, 68, 69, 70, 71, 72, 73, 74, 75, 76, 77, 78, 79, 80, 81, 82, 83, 84, 85, 86, 87, 88, 89, 90, 91, 92, 93, 94, 95, 96, 97, 98, 99, 100, 101, 102, 103, 104, 105, 106, 107, 108, 109, 110, 111, 112, 113, 114, 115, 116, 117, 118, 119, 120, 121, 122, 123, 124, 125, 126, 127, 128, 129, 130, 131, 132, 133, 134, 135, 136, 137, 138, 139, 140, 141, 142, 143, 144, 145, 146, 147, 148, 149, 150, 151, 152, 153, 154, 155, 156, 157, 158, 159, 160, 161, 162, 163, 164, 165, 166, 167, 168, 169, 170, 171, 172, 173, 174, 175, 176, 177, 178, 179, 180, 181, 182, 183, 184, 185, 186, 187, 188, 189, 190, 191, 192, 193, 194, 195, 196, 197, 198, 199, 200, 201, 202, 203, 204, 205, 206, 207, 208, 209, 210, 211, 212, 213, 214, 215, 216, 217, 218, 219, 220, 221, 222, 223, 224, 225, 226, 227, 228, 229, 230, 231, 232, 233, 234, 235, 236, 237, 238, 239, 240, 241, 242, 243, 244, 245, 246, 247, 248, 249, 250, 251, 252, 253, 254, 255, 256, 257, 258, 259, 260, 261, 262, 263, 264, 265, 266, 267, 268, 269, 270, 271, 272, 273, 274, 275, 276, 277, 278, 279, 280, 281, 282, 283, 284, 285, 286, 287, 288, 289, 290, 291, 292, 293, 294, 295, 296, 297, 298, 299, 300, 301, 302, 303, 304, 305, 306, 307, 308, 309, 310, 311, 312, 313, 314, 315, 316, 317, 318, 319, 320, 321, 322, 323, 324, 325, 326, 327, 328, 329, 330, 331, 332, 333, 334, 335, 336, 337, 338, 339, 340, 341, 342, 343, 344, 345, 346, 347, 348, 349, 350, 351, 352, 353, 354, 355, 356, 357, 358, 359, 360, 361, 362, 363, 364, 365, 366, 367, 368, 369, 370, 371, 372, 373, 374, 375, 376, 377, 378, 379, 380, 381, 382, 383, 384, 385, 386, 387, 388, 389, 390, 391, 392, 393, 394, 395, 396, 397, 398, 399, 400, 401, 402, 403, 404, 405, 406, 407, 408, 409, 410, 411, 412, 413, 414, 415, 416, 417, 418, 419, 420, 421, 422, 423, 424, 425, 426, 427, 428, 429, 430, 431, 432, 433, 434, 435, 436, 437, 438, 439, 440, 441, 442, 443, 444, 445, 446, 447, 448, 449, 450, 451, 452, 453, 454, 455, 456, 457, 458, 459, 460, 461, 462, 463, 464, 465, 466, 467, 468, 469, 470, 471, 472, 473, 474, 475, 476, 477, 478, 479, 480, 481, 482, 483, 484, 485, 486, 487, 488, 489, 490, 491, 492, 493, 494, 495, 496, 497, 498, 499, 500, 501, 502, 503, 504, 505, 506, 507, 508, 509, 510, 511, 512, 513, 514],
      "AcquisitionTime": ["110101.005000", "110103.005000", "110105.005000", "110107.005000", "110109.005000", "110111.005000", "110113.005000", "110115.005000", "110117.005000", "110119.005000", "110121.005000", "110123.005000", "110125.005000", "110127.005000", "110129.005000", "110131.005000", "110133.005000", "110135.005000", "110137.005000", "110139.005000", "110141.005000", "110143.005000", "110145.005000", "110147.005000", "110149.005000", "110151.005000", "110153.005000", "110155.005000", "110157.005000", "110159.005000", "110201.005000", "110203.005000", "110205.005000", "110207.005000", "110209.005000", "110211.005000", "110213.005000", "110215.005000", "110217.005000", "110219.005000", "110221.005000", "110223.005000", "110225.005000", "110227.005000", "110229.005000", "110231.005000", "110233.005000", "110235.005000", "110237.005000", "110239.005000", "110241.005000", "110243.005000", "110245.005000", "110247.005000", "110249.005000", "110251.005000", "110253.005000", "110255.005000", "110257.005000", "110259.005000", "110301.005000", "110303.005000", "110305.005000", "110307.005000", "110309.005000", "110311.005000", "110313.005000", "110315.005000", "110317.005000", "110319.005000", "110321.005000", "110323.005000", "110325.005000", "110327.005000", "110329.005000", "110331.005000", "110333.005000", "110335.005000", "110337.005000", "110339.005000", "110341.005000", "110343.005000", "110345.005000", "110347.005000", "110349.005000", "110351.005000", "110353.005000", "110355.005000", "110357.005000", "110359.005000", "110401.005000", "110403.005000", "110405.005000", "110407.005000", "110409.005000", "110411.005000", "110413.005000", "110415.005000", "110417.005000", "110419.005000", "110421.005000", "110423.005000", "110425.005000", "110427.005000", "110429.005000", "110431.005000", "110433.005000", "110435.005000", "110437.005000", "110439.005000", "110441.005000", "110443.005000", "110445.005000", "110447.005000", "110449.005000", "110451.005000", "110453.005000", "110455.005000", "110457.005000", "110459.005000", "110501.005000", "110503.005000", "110505.005000", "110507.005000", "110509.005000", "110511.005000", "110513.005000", "110515.005000", "110517.005000", "110519.005000", "110521.005000", "110523.005000", "110525.005000", "110527.005000", "110529.005000", "110531.005000", "110533.005000", "110535.005000", "110537.005000", "110539.005000", "110541.005000", "110543.005000", "110545.005000", "110547.005000", "110549.005000", "110551.005000", "110553.005000", "110555.005000", "110557.005000", "110559.007500", "110601.007500", "110603.007500", "110605.007500", "110607.007500", "110609.007500", "110611.007500", "110613.007500", "110615.007500", "110617.007500", "110619.007500", "110621.007500", "110623.007500", "110625.007500", "110627.007500", "110629.007500", "110631.007500", "110633.007500", "110635.007500", "110637.007500", "110639.007500", "110641.007500", "110643.007500", "110645.007500", "110647.007500", "110649.007500", "110651.007500", "110653.007500", "110655.007500", "110657.007500", "110659.007500", "110701.007500", "110703.007500", "110705.007500", "110707.007500", "110709.007500", "110711.007500", "110713.007500", "110715.007500", "110717.007500", "110719.007500", "110721.007500", "110723.007500", "110725.007500", "110727.007500", "110729.007500", "110731.007500", "110733.007500", "110735.007500", "110737.007500", "110739.007500", "110741.007500", "110743.007500", "110745.007500", "110747.007500", "110749.007500", "110751.007500", "110753.007500", "110755.007500", "110757.007500", "110759.007500", "110801.007500", "110803.007500", "110805.007500", "110807.007500", "110809.007500", "110811.007500", "110813.007500", "110815.007500", "110817.007500", "110819.007500", "110821.007500", "110823.007500", "110825.007500", "110827.007500", "110829.007500", "110831.007500", "110833.007500", "110835.007500", "110837.007500", "110839.007500", "110841.007500", "110843.007500", "110845.007500", "110847.007500", "110849.007500", "110851.007500", "110853.007500", "110855.007500", "110857.007500", "110859.007500", "110901.007500", "110903.007500", "110905.007500", "110907.007500", "110909.007500", "110911.007500", "110913.007500", "110915.007500", "110917.007500", "110919.007500", "110921.007500", "110923.007500", "110925.007500", "110927.007500", "110929.007500", "110931.007500", "110933.007500", "110935.007500", "110937.007500", "110939.007500", "110941.007500", "110943.007500", "110945.007500", "110947.007500", "110949.007500", "110951.007500", "110953.007500", "110955.007500", "110957.007500", "110959.007500", "111001.007500", "111003.007500", "111005.007500", "111007.007500", "111009.007500", "111011.007500", "111013.007500", "111015.007500", "111017.007500", "111019.007500", "111021.007500", "111023.007500", "111025.007500", "111027.007500", "111029.007500", "111031.007500", "111033.007500", "111035.007500", "111037.007500", "111039.007500", "111041.007500", "111043.007500", "111045.007500", "111047.007500", "111049.007500", "111051.007500", "111053.007500", "111055.007500", "111057.007500", "111059.007500", "111101.007500", "111103.007500", "111105.007500", "111107.007500", "111109.007500", "111111.007500", "111113.007500", "111115.007500", "111117.007500", "111119.007500", "111121.007500", "111123.007500", "111125.007500", "111127.007500", "111129.007500", "111131.007500", "111133.007500", "111135.007500", "111137.007500", "111139.007500", "111141.007500", "111143.007500", "111145.007500", "111147.007500", "111149.007500", "111151.007500", "111153.007500", "111155.007500", "111157.007500", "111159.007500", "111201.007500", "111203.007500", "111205.007500", "111207.007500", "111209.007500", "111211.007500", "111213.007500", "111215.007500", "111217.007500", "111219.007500", "111221.007500", "111223.007500", "111225.007500", "111227.007500", "111229.007500", "111231.007500", "111233.007500", "111235.007500", "111237.007500", "111239.007500", "111241.007500", "111243.007500", "111245.007500", "111247.007500", "111249.007500", "111251.007500", "111253.007500", "111255.007500", "111257.007500", "111259.007500", "111301.007500", "111303.007500", "111305.007500", "111307.007500", "111309.007500", "111311.007500", "111313.007500", "111315.007500", "111317.007500", "111319.007500", "111321.007500", "111323.007500", "111325.007500", "111327.007500", "111329.007500", "111331.007500", "111333.007500", "111335.007500", "111337.007500", "111339.007500", "111341.007500", "111343.007500", "111345.007500", "111347.007500", "111349.007500", "111351.007500", "111353.007500", "111355.007500", "111357.007500", "111359.007500", "111401.007500", "111403.007500", "111405.007500", "111407.007500", "111409.007500", "111411.007500", "111413.007500", "111415.007500", "111417.007500", "111419.010000", "111421.010000", "111423.010000", "111425.010000", "111427.010000", "111429.010000", "111431.010000", "111433.010000", "111435.010000", "111437.010000", "111439.010000", "111441.010000", "111443.010000", "111445.010000", "111447.010000", "111449.010000", "111451.010000", "111453.010000", "111455.010000", "111457.010000", "111459.010000", "111501.010000", "111503.010000", "111505.010000", "111507.010000", "111509.010000", "111511.010000", "111513.010000", "111515.010000", "111517.010000", "111519.010000", "111521.010000", "111523.010000", "111525.010000", "111527.010000", "111529.010000", "111531.010000", "111533.010000", "111535.010000", "111537.010000", "111539.010000", "111541.010000", "111543.010000", "111545.010000", "111547.010000", "111549.010000", "111551.010000", "111553.010000", "111555.010000", "111557.010000", "111559.010000", "111601.010000", "111603.010000", "111605.010000", "111607.010000", "111609.010000", "111611.010000", "111613.010000", "111615.010000", "111617.010000", "111619.010000", "111621.010000", "111623.010000", "111625.010000", "111627.010000", "111629.010000", "111631.010000", "111633.010000", "111635.010000", "111637.010000", "111639.010000", "111641.010000", "111643.010000", "111645.010000", "111647.010000", "111649.010000", "111651.010000", "111653.010000", "111655.010000", "111657.010000", "111659.010000", "111701.010000", "111703.010000", "111705.010000", "111707.010000", "111709.010000", "111711.010000", "111713.010000", "111715.010000", "111717.010000", "111719.010000", "111721.010000", "111723.010000", "111725.010000", "111727.010000", "111729.010000", "111731.010000", "111733.010000", "111735.010000", "111737.010000", "111739.010000", "111741.010000", "111743.010000", "111745.010000", "111747.010000", "111749.010000", "111751.010000", "111753.010000", "111755.010000", "111757.010000", "111759.010000", "111801.010000", "111803.010000", "111805.010000", "111807.010000"],
      "ContentTime": ["110151.957000", "110151.960000", "110151.962000", "110151.972000", "110151.974000", "110151.976000", "110151.978000", "110151.980000", "110151.982000", "110151.984000", "110151.986000", "110151.988000", "110151.990000", "110151.992000", "110151.994000", "110151.996000", "110151.998000", "110152.001000", "110152.003000", "110152.005000", "110152.007000", "110152.009000", "110152.011000", "110152.013000", "110152.021000", "110211.952000", "110211.954000", "110211.956000", "110211.959000", "110211.960000", "110211.962000", "110211.964000", "110211.966000", "110211.968000", "110211.970000", "110251.952000", "110251.954000", "110251.956000", "110251.958000", "110251.960000", "110251.962000", "110251.964000", "110251.966000", "110251.968000", "110251.970000", "110251.972000", "110251.974000", "110251.976000", "110251.979000", "110251.980000", "110251.982000", "110251.984000", "110251.987000", "110251.988000", "110251.990000", "110331.953000", "110331.956000", "110331.958000", "110331.959000", "110331.961000", "110331.963000", "110331.965000", "110331.967000", "110331.969000", "110331.972000", "110331.980000", "110331.982000", "110331.984000", "110331.986000", "110331.988000", "110331.990000", "110331.992000", "110331.994000", "110331.996000", "110331.998000", "110411.952000", "110411.955000", "110411.957000", "110411.959000", "110411.961000", "110411.963000", "110411.964000", "110411.966000", "110411.968000", "110411.970000", "110411.972000", "110411.974000", "110411.976000", "110411.978000", "110411.980000", "110411.982000", "110411.984000", "110411.986000", "110411.988000", "110411.990000", "110451.952000", "110451.954000", "110451.956000", "110451.958000", "110451.960000", "110451.962000", "110451.964000", "110451.966000", "110451.968000", "110451.970000", "110451.972000", "110451.974000", "110451.976000", "110451.978000", "110451.980000", "110451.982000", "110451.984000", "110451.986000", "110451.988000", "110451.990000", "110531.953000", "110531.955000", "110531.957000", "110531.959000", "110531.961000", "110531.963000", "110531.965000", "110531.967000", "110531.969000", "110531.972000", "110531.973000", "110531.975000", "110531.978000", "110531.980000", "110531.982000", "110531.984000", "110531.986000", "110531.988000", "110531.990000", "110531.992000", "110611.953000", "110611.956000", "110611.958000", "110611.960000", "110611.962000", "110611.964000", "110611.966000", "110611.968000", "110611.970000", "110611.972000", "110611.974000", "110611.976000", "110611.977000", "110611.980000", "110611.982000", "110611.984000", "110611.986000", "110611.988000", "110611.995000", "110611.997000", "110651.952000", "110651.955000", "110651.957000", "110651.959000", "110651.961000", "110651.963000", "110651.965000", "110651.967000", "110651.969000", "110651.971000", "110651.973000", "110651.975000", "110651.976000", "110651.979000", "110651.981000", "110651.989000", "110651.991000", "110651.993000", "110651.995000", "110651.997000", "110731.952000", "110731.954000", "110731.956000", "110731.958000", "110731.960000", "110731.963000", "110731.965000", "110731.966000", "110731.968000", "110731.971000", "110731.972000", "110731.974000", "110731.976000", "110731.979000", "110731.980000", "110731.982000", "110731.984000", "110731.987000", "110731.989000", "110731.991000", "110811.953000", "110811.956000", "110811.957000", "110811.959000", "110811.961000", "110811.963000", "110811.965000", "110811.967000", "110811.969000", "110811.972000", "110811.974000", "110811.976000", "110811.977000", "110811.980000", "110811.981000", "110811.983000", "110811.985000", "110811.987000", "110811.989000", "110811.991000", "110851.952000", "110851.955000", "110851.957000", "110851.959000", "110851.960000", "110851.963000", "110851.964000", "110851.966000", "110851.968000", "110851.971000", "110851.973000", "110851.975000", "110851.976000", "110851.979000", "110851.981000", "110851.982000", "110851.984000", "110851.987000", "110851.989000", "110851.991000", "110931.952000", "110931.955000", "110931.957000", "110931.958000", "110931.960000", "110931.962000", "110931.964000", "110931.966000", "110931.968000", "110931.971000", "110931.972000", "110931.974000", "110931.976000", "110931.978000", "110931.980000", "110931.982000", "110931.984000", "110931.986000", "110931.988000", "110931.990000", "111011.953000", "111011.956000", "111011.957000", "111011.959000", "111011.961000", "111011.963000", "111011.965000", "111011.967000", "111011.969000", "111011.971000", "111011.973000", "111011.975000", "111011.977000", "111011.979000", "111011.981000", "111011.983000", "111011.985000", "111011.988000", "111011.990000", "111011.992000", "111051.953000", "111051.956000", "111051.957000", "111051.959000", "111051.961000", "111051.963000", "111051.965000", "111051.967000", "111051.969000", "111051.972000", "111051.974000", "111051.976000", "111051.978000", "111051.980000", "111051.982000", "111051.984000", "111051.986000", "111051.988000", "111051.990000", "111051.992000", "111131.952000", "111131.955000", "111131.957000", "111131.959000", "111131.961000", "111131.963000", "111131.965000", "111131.966000", "111131.968000", "111131.970000", "111131.972000", "111131.974000", "111131.976000", "111131.979000", "111131.980000", "111131.982000", "111131.984000", "111131.986000", "111131.988000", "111131.990000", "111151.952000", "111151.954000", "111151.956000", "111151.958000", "111151.960000", "111151.962000", "111151.964000", "111151.966000", "111151.968000", "111151.970000", "111231.953000", "111231.955000", "111231.957000", "111231.960000", "111231.962000", "111231.964000", "111231.966000", "111231.968000", "111231.970000", "111231.972000", "111231.974000", "111231.976000", "111231.978000", "111231.980000", "111231.982000", "111231.984000", "111231.986000", "111231.988000", "111231.990000", "111231.992000", "111311.953000", "111311.955000", "111311.957000", "111311.960000", "111311.962000", "111311.963000", "111311.965000", "111311.968000", "111311.970000", "111311.972000", "111311.973000", "111311.976000", "111311.978000", "111311.979000", "111311.981000", "111311.984000", "111311.986000", "111311.988000", "111311.990000", "111311.992000", "111351.952000", "111351.954000", "111351.956000", "111351.959000", "111351.960000", "111351.962000", "111351.964000", "111351.966000", "111351.968000", "111351.970000", "111351.972000", "111351.974000", "111351.977000", "111351.979000", "111351.981000", "111351.983000", "111351.985000", "111351.987000", "111351.989000", "111351.991000", "111431.952000", "111431.954000", "111431.956000", "111431.958000", "111431.960000", "111431.962000", "111431.964000", "111431.966000", "111431.968000", "111431.970000", "111431.972000", "111431.974000", "111431.976000", "111431.978000", "111431.980000", "111431.983000", "111431.985000", "111431.987000", "111431.989000", "111431.991000", "111511.953000", "111511.955000", "111511.957000", "111511.960000", "111511.962000", "111511.964000", "111511.965000", "111511.968000", "111511.970000", "111511.972000", "111511.974000", "111511.976000", "111511.978000", "111511.980000", "111511.982000", "111511.984000", "111511.986000", "111511.988000", "111511.990000", "111511.992000", "111551.960000", "111551.962000", "111551.964000", "111551.966000", "111551.968000", "111551.970000", "111551.972000", "111551.974000", "111551.976000", "111551.978000", "111551.980000", "111551.982000", "111551.984000", "111551.986000", "111551.988000", "111551.990000", "111551.992000", "111551.994000", "111551.996000", "111551.998000", "111631.952000", "111631.954000", "111631.956000", "111631.959000", "111631.961000", "111631.970000", "111631.972000", "111631.974000", "111631.976000", "111631.978000", "111631.980000", "111631.982000", "111631.984000", "111631.986000", "111631.988000", "111631.990000", "111631.992000", "111631.994000", "111631.996000", "111631.998000", "111711.953000", "111711.955000", "111711.957000", "111711.960000", "111711.961000", "111711.964000", "111711.966000", "111711.968000", "111711.970000", "111711.972000", "111711.974000", "111711.976000", "111711.978000", "111711.980000", "111711.982000", "111711.984000", "111711.986000", "111711.988000", "111711.990000", "111711.992000", "111751.953000", "111751.955000", "111751.957000", "111751.959000", "111751.961000", "111751.963000", "111751.965000", "111751.968000", "111751.970000", "111751.972000", "111751.973000", "111751.976000", "111751.978000", "111751.979000", "111751.981000", "111751.984000", "111751.986000", "111751.987000", "111751.989000", "111751.991000", "111808.761000", "111808.764000", "111808.766000", "111808.768000", "111808.770000", "111808.772000", "111808.774000", "111808.775000", "111808.777000"],
