{
  "AcquisitionMatrixPE": 64,
  "AcquisitionNumber": 1,
  "AcquisitionTime": "09:19:44.997500",
  "BandwidthPerPixelPhaseEncode": 25.202,
  "BaseResolution": 64,
  "BodyPartExamined": "BRAIN",
  "ConsistencyInfo": "N4_VE11C_LATEST_20160120",
  "ConversionSoftware": "dcm2niix",
  "ConversionSoftwareVersion": "v1.0.20201102",
  "DerivedVendorReportedEchoSpacing": 0.00061999,
  "DeviceSerialNumber": "45758",
  "DwellTime": 4.3e-06,
  "EchoTime": 0.03,
  "EchoTrainLength": 64,
  "EffectiveEchoSpacing": 0.00061999,
  "FlipAngle": 90,
  "ImageOrientationPatientDICOM": [0.999423, 0.0187886, -0.028283, -0.0209349, 0.996764, -0.0776102],
  "ImageType": [
    "ORIGINAL",
    "PRIMARY",
    "M",
    "ND",
    "MOSAIC"
],
  "ImagingFrequency": 123.2,
  "InPlanePhaseEncodingDirectionDICOM": "ROW",
  "InstitutionAddress": "Street StreetNo,City /652E4B/,District,KR,ZIP",
  "InstitutionName": "DGMIF",
  "InstitutionalDepartmentName": "Department",
  "MRAcquisitionType": "2D",
  "MagneticFieldStrength": 3,
  "Manufacturer": "Siemens",
  "ManufacturersModelName": "Skyra",
  "Modality": "MR",
  "PartialFourier": 1,
  "PatientPosition": "HFS",
  "PercentPhaseFOV": 100,
  "PercentSampling": 100,
  "PhaseEncodingDirection": "i",
  "PhaseEncodingSteps": 64,
  "PhaseResolution": 1,
  "PixelBandwidth": 1815,
  "ProcedureStepDescription": "DGMIF^DGIST",
  "ProtocolName": "EPI_DGIST_1",
  "PulseSequenceDetails": "%SiemensSeq%\\ep2d_bold",
  "ReceiveCoilActiveElements": "HC1-6",
  "ReceiveCoilName": "HeadNeck_64",
  "ReconMatrixPE": 64,
  "RepetitionTime": 2,
  "SAR": 0.123876,
  "ScanOptions": "FS",
  "ScanningSequence": "EP",
  "SequenceName": "*epfid2d1_64",
  "SequenceVariant": "SK",
  "SeriesDescription": "EPI_DGIST_1",
  "SeriesNumber": 2,
  "ShimSetting": [-9733, -13642, -8259, 322, -456, -458, -400, -190],
  "SliceThickness": 4,
  "SliceTiming": [0.99, 0, 1.055, 0.065, 1.1225, 0.1325, 1.1875, 0.1975, 1.2525, 0.265, 1.32, 0.33, 1.385, 0.395, 1.4525, 0.4625, 1.5175, 0.5275, 1.5825, 0.5925, 1.65, 0.66, 1.715, 0.725, 1.7825, 0.7925, 1.8475, 0.8575, 1.9125, 0.9225],
  "SoftwareVersions": "syngo MR E11",
  "SpacingBetweenSlices": 4.8,
  "StationName": "AWP45758",
  "TaskName": "asrt",
  "TotalReadoutTime": 0.0390594,
  "TxRefAmp": 329.342,
  "dcmmeta_affine": [
    [-2.998270034790039, -0.06280481070280075, -0.12831969559192657, 98.90058135986328],
    [-0.05636585131287575, 2.9902918338775635, -0.37515631318092346, -108.6683578491211],
    [-0.08484894782304764, 0.23283064365386963, 4.783596038818359, -83.80210876464844],
    [0.0, 0.0, 0.0, 1.0]
],
  "dcmmeta_reorient_transform": [
    [0.0, -1.0, 0.0, 63.0],
    [1.0, 0.0, 0.0, 0.0],
    [0.0, 0.0, 1.0, 0.0],
    [0.0, 0.0, 0.0, 1.0]
],
  "dcmmeta_shape": [64, 64, 30, 514],
  "dcmmeta_slice_dim": 2,
  "dcmmeta_version": 0.6,
  "global": {
    "const": {
      "AcquisitionMatrix": [0, 64, 64, 0],
      "AngioFlag": "N",
      "BitsAllocated": 16,
      "BitsStored": 12,
      "BodyPartExamined": "BRAIN",
      "Columns": 384,
      "EchoNumbers": 1,
      "EchoTime": 30.0,
      "EchoTrainLength": 64,
      "FlipAngle": 90.0,
      "HighBit": 11,
      "ImageOrientationPatient": [0.99942336410623, 0.01878861679021, -0.028282983536, -0.0209349363035, 0.99676395536301, -0.0776102166667],
      "ImagePositionPatient": [-564.618322914, -567.18526367696, -18.305039083158],
      "ImageType": [
        "ORIGINAL",
        "PRIMARY",
        "M",
        "ND",
        "MOSAIC"
],
      "ImagedNucleus": "1H",
      "ImagingFrequency": 123.200102,
      "InPlanePhaseEncodingDirection": "ROW",
      "MRAcquisitionType": "2D",
      "MagneticFieldStrength": 3.0,
      "Manufacturer": "SIEMENS",
      "ManufacturerModelName": "Skyra",
      "Modality": "MR",
      "NumberOfAverages": 1.0,
      "NumberOfPhaseEncodingSteps": 64,
      "PercentPhaseFieldOfView": 100.0,
      "PercentSampling": 100.0,
      "PerformedProcedureStepStartTime": "091447.712000",
      "PhotometricInterpretation": "MONOCHROME2",
      "PixelBandwidth": 1815.0,
      "PixelRepresentation": 0,
      "PixelSpacing": [3.0, 3.0],
      "ProtocolName": "EPI_DGIST_1",
      "RepetitionTime": 2000.0,
      "Rows": 384,
      "SAR": 0.12387619921469,
      "SamplesPerPixel": 1,
      "ScanOptions": "FS",
      "ScanningSequence": "EP",
      "SequenceName": "*epfid2d1_64",
      "SequenceVariant": "SK",
      "SeriesDescription": "EPI_DGIST_1",
      "SeriesNumber": 2,
      "SeriesTime": "092033.118000",
      "SliceLocation": -77.666395922596,
      "SliceThickness": 4.0,
      "SmallestImagePixelValue": 0,
      "SoftwareVersions": "syngo MR E11",
      "SpacingBetweenSlices": 4.8000000564873,
      "SpecificCharacterSet": "ISO_IR 100",
      "StudyID": "1",
      "StudyTime": "091447.568000",
      "TransmitCoilName": "Body",
      "VariableFlipAngleFlag": "N",
      "WindowCenterWidthExplanation": "Algo1",
      "dBdt": 0.0},
    "slices": {}
  },
  "time": {
    "samples": {
      "AcquisitionNumber": [1, 2, 3, 4, 5, 6, 7, 8, 9, 10, 11, 12, 13, 14, 15, 16, 17, 18, 19, 20, 21, 22, 23, 24, 25, 26, 27, 28, 29, 30, 31, 32, 33, 34, 35, 36, 37, 38, 39, 40, 41, 42, 43, 44, 45, 46, 47, 48, 49, 50, 51, 52, 53, 54, 55, 56, 57, 58, 59, 60, 61, 62, 63, 64, 65, 66, 67, 68, 69, 70, 71, 72, 73, 74, 75, 76, 77, 78, 79, 80, 81, 82, 83, 84, 85, 86, 87, 88, 89, 90, 91, 92, 93, 94, 95, 96, 97, 98, 99, 100, 101, 102, 103, 104, 105, 106, 107, 108, 109, 110, 111, 112, 113, 114, 115, 116, 117, 118, 119, 120, 121, 122, 123, 124, 125, 126, 127, 128, 129, 130, 131, 132, 133, 134, 135, 136, 137, 138, 139, 140, 141, 142, 143, 144, 145, 146, 147, 148, 149, 150, 151, 152, 153, 154, 155, 156, 157, 158, 159, 160, 161, 162, 163, 164, 165, 166, 167, 168, 169, 170, 171, 172, 173, 174, 175, 176, 177, 178, 179, 180, 181, 182, 183, 184, 185, 186, 187, 188, 189, 190, 191, 192, 193, 194, 195, 196, 197, 198, 199, 200, 201, 202, 203, 204, 205, 206, 207, 208, 209, 210, 211, 212, 213, 214, 215, 216, 217, 218, 219, 220, 221, 222, 223, 224, 225, 226, 227, 228, 229, 230, 231, 232, 233, 234, 235, 236, 237, 238, 239, 240, 241, 242, 243, 244, 245, 246, 247, 248, 249, 250, 251, 252, 253, 254, 255, 256, 257, 258, 259, 260, 261, 262, 263, 264, 265, 266, 267, 268, 269, 270, 271, 272, 273, 274, 275, 276, 277, 278, 279, 280, 281, 282, 283, 284, 285, 286, 287, 288, 289, 290, 291, 292, 293, 294, 295, 296, 297, 298, 299, 300, 301, 302, 303, 304, 305, 306, 307, 308, 309, 310, 311, 312, 313, 314, 315, 316, 317, 318, 319, 320, 321, 322, 323, 324, 325, 326, 327, 328, 329, 330, 331, 332, 333, 334, 335, 336, 337, 338, 339, 340, 341, 342, 343, 344, 345, 346, 347, 348, 349, 350, 351, 352, 353, 354, 355, 356, 357, 358, 359, 360, 361, 362, 363, 364, 365, 366, 367, 368, 369, 370, 371, 372, 373, 374, 375, 376, 377, 378, 379, 380, 381, 382, 383, 384, 385, 386, 387, 388, 389, 390, 391, 392, 393, 394, 395, 396, 397, 398, 399, 400, 401, 402, 403, 404, 405, 406, 407, 408, 409, 410, 411, 412, 413, 414, 415, 416, 417, 418, 419, 420, 421, 422, 423, 424, 425, 426, 427, 428, 429, 430, 431, 432, 433, 434, 435, 436, 437, 438, 439, 440, 441, 442, 443, 444, 445, 446, 447, 448, 449, 450, 451, 452, 453, 454, 455, 456, 457, 458, 459, 460, 461, 462, 463, 464, 465, 466, 467, 468, 469, 470, 471, 472, 473, 474, 475, 476, 477, 478, 479, 480, 481, 482, 483, 484, 485, 486, 487, 488, 489, 490, 491, 492, 493, 494, 495, 496, 497, 498, 499, 500, 501, 502, 503, 504, 505, 506, 507, 508, 509, 510, 511, 512, 513, 514],
      "AcquisitionTime": ["091944.997500", "091946.997500", "091948.997500", "091950.997500", "091952.997500", "091954.997500", "091956.997500", "091958.997500", "092000.997500", "092002.997500", "092004.997500", "092006.997500", "092008.997500", "092010.997500", "092012.997500", "092014.997500", "092016.997500", "092018.997500", "092020.997500", "092022.997500", "092024.997500", "092026.997500", "092028.997500", "092030.997500", "092032.997500", "092034.997500", "092036.997500", "092038.997500", "092040.997500", "092042.997500", "092044.997500", "092046.997500", "092048.997500", "092050.997500", "092052.997500", "092054.997500", "092056.997500", "092058.997500", "092100.997500", "092102.997500", "092104.997500", "092106.997500", "092108.997500", "092110.997500", "092112.997500", "092114.997500", "092116.997500", "092118.997500", "092120.997500", "092122.997500", "092124.997500", "092126.997500", "092128.997500", "092130.997500", "092132.997500", "092134.997500", "092136.997500", "092138.997500", "092140.997500", "092142.997500", "092144.997500", "092146.997500", "092148.997500", "092150.997500", "092152.997500", "092154.997500", "092156.997500", "092158.997500", "092200.997500", "092202.997500", "092204.997500", "092206.997500", "092208.997500", "092210.997500", "092212.997500", "092214.997500", "092216.997500", "092218.997500", "092220.997500", "092222.997500", "092224.997500", "092226.997500", "092228.997500", "092230.997500", "092232.997500", "092234.997500", "092236.997500", "092238.997500", "092240.997500", "092242.997500", "092244.997500", "092246.997500", "092248.997500", "092250.997500", "092252.997500", "092254.997500", "092256.997500", "092258.997500", "092300.997500", "092302.997500", "092304.997500", "092306.997500", "092308.997500", "092310.997500", "092312.997500", "092314.997500", "092316.997500", "092318.997500", "092320.997500", "092322.997500", "092324.997500", "092326.997500", "092328.997500", "092330.997500", "092332.997500", "092334.997500", "092336.997500", "092338.997500", "092340.997500", "092342.997500", "092344.997500", "092346.997500", "092348.997500", "092350.997500", "092352.997500", "092354.997500", "092356.997500", "092358.997500", "092400.997500", "092402.997500", "092404.997500", "092406.997500", "092408.997500", "092410.997500", "092412.997500", "092414.997500", "092416.997500", "092418.997500", "092420.997500", "092422.997500", "092424.997500", "092426.997500", "092428.997500", "092430.997500", "092432.997500", "092434.997500", "092436.997500", "092438.997500", "092440.997500", "092442.997500", "092444.997500", "092446.997500", "092448.997500", "092450.997500", "092452.997500", "092454.997500", "092456.997500", "092458.997500", "092500.997500", "092502.997500", "092504.997500", "092506.997500", "092508.997500", "092510.997500", "092512.997500", "092514.997500", "092516.997500", "092518.997500", "092520.997500", "092522.997500", "092524.997500", "092526.997500", "092528.997500", "092530.997500", "092532.997500", "092534.997500", "092536.997500", "092538.997500", "092540.997500", "092542.997500", "092544.997500", "092546.997500", "092548.997500", "092550.997500", "092552.997500", "092554.997500", "092556.997500", "092558.997500", "092600.997500", "092602.997500", "092604.997500", "092606.997500", "092608.997500", "092610.997500", "092612.997500", "092614.997500", "092616.997500", "092618.997500", "092620.997500", "092622.997500", "092624.997500", "092626.997500", "092628.997500", "092630.997500", "092632.997500", "092634.997500", "092636.997500", "092638.997500", "092640.997500", "092642.997500", "092644.997500", "092646.997500", "092648.997500", "092650.997500", "092652.997500", "092654.997500", "092656.997500", "092658.997500", "092700.997500", "092702.997500", "092704.997500", "092706.997500", "092708.997500", "092710.997500", "092712.997500", "092714.997500", "092716.997500", "092718.997500", "092720.997500", "092722.997500", "092724.997500", "092726.997500", "092728.997500", "092730.997500", "092732.997500", "092734.997500", "092736.997500", "092738.997500", "092740.997500", "092742.997500", "092744.997500", "092746.997500", "092748.997500", "092750.997500", "092752.997500", "092754.997500", "092756.997500", "092758.997500", "092800.997500", "092802.997500", "092804.997500", "092806.997500", "092808.997500", "092810.997500", "092812.997500", "092814.997500", "092816.997500", "092818.997500", "092820.997500", "092822.997500", "092824.997500", "092826.997500", "092828.997500", "092830.997500", "092832.997500", "092834.997500", "092836.997500", "092838.997500", "092840.997500", "092842.997500", "092844.997500", "092846.997500", "092848.997500", "092850.997500", "092852.997500", "092854.997500", "092856.997500", "092858.997500", "092900.997500", "092902.997500", "092904.997500", "092906.997500", "092908.997500", "092910.997500", "092912.997500", "092914.997500", "092916.997500", "092918.997500", "092920.997500", "092922.997500", "092924.997500", "092926.997500", "092928.997500", "092930.997500", "092932.997500", "092934.997500", "092936.997500", "092938.997500", "092940.997500", "092942.997500", "092944.997500", "092946.997500", "092948.997500", "092950.997500", "092952.997500", "092954.997500", "092956.997500", "092958.997500", "093000.997500", "093002.997500", "093004.997500", "093006.997500", "093008.997500", "093010.997500", "093012.997500", "093014.997500", "093016.997500", "093018.997500", "093020.997500", "093022.997500", "093024.997500", "093026.997500", "093028.997500", "093030.997500", "093032.997500", "093034.997500", "093036.997500", "093038.997500", "093040.997500", "093042.997500", "093044.997500", "093046.997500", "093048.997500", "093050.997500", "093052.997500", "093054.997500", "093056.997500", "093058.997500", "093100.997500", "093102.997500", "093104.997500", "093106.997500", "093108.997500", "093110.997500", "093112.997500", "093114.997500", "093116.997500", "093118.997500", "093120.997500", "093122.997500", "093124.997500", "093126.997500", "093128.997500", "093130.997500", "093132.997500", "093134.997500", "093136.997500", "093138.997500", "093140.997500", "093142.997500", "093144.997500", "093146.997500", "093148.997500", "093150.997500", "093152.997500", "093154.997500", "093156.997500", "093158.997500", "093200.997500", "093202.997500", "093204.997500", "093206.997500", "093208.997500", "093210.997500", "093212.997500", "093214.997500", "093216.997500", "093218.997500", "093220.997500", "093222.997500", "093224.997500", "093226.997500", "093228.997500", "093230.997500", "093232.997500", "093234.997500", "093236.997500", "093238.997500", "093240.997500", "093242.997500", "093244.997500", "093246.997500", "093248.997500", "093250.997500", "093252.997500", "093254.997500", "093256.997500", "093258.997500", "093300.997500", "093302.997500", "093304.997500", "093306.997500", "093308.997500", "093310.997500", "093312.997500", "093314.997500", "093316.997500", "093318.997500", "093320.997500", "093322.997500", "093324.997500", "093326.997500", "093328.997500", "093330.997500", "093332.997500", "093334.997500", "093336.997500", "093338.997500", "093340.997500", "093342.997500", "093344.997500", "093346.997500", "093348.997500", "093350.997500", "093352.997500", "093354.997500", "093356.997500", "093358.997500", "093400.997500", "093402.997500", "093404.997500", "093406.997500", "093408.997500", "093410.997500", "093412.997500", "093414.997500", "093416.997500", "093418.997500", "093420.997500", "093422.997500", "093424.997500", "093426.997500", "093428.997500", "093430.997500", "093432.997500", "093434.997500", "093436.997500", "093438.997500", "093440.997500", "093442.997500", "093444.997500", "093446.997500", "093448.997500", "093450.997500", "093452.997500", "093454.997500", "093456.997500", "093458.997500", "093500.997500", "093502.997500", "093504.997500", "093506.997500", "093508.997500", "093510.997500", "093512.997500", "093514.997500", "093516.997500", "093518.997500", "093520.997500", "093522.997500", "093524.997500", "093526.997500", "093528.997500", "093530.997500", "093532.997500", "093534.997500", "093536.997500", "093538.997500", "093540.997500", "093542.997500", "093544.997500", "093546.997500", "093548.997500", "093550.997500", "093552.997500", "093554.997500", "093556.997500", "093558.997500", "093600.997500", "093602.997500", "093604.997500", "093606.997500", "093608.997500", "093610.997500", "093612.997500", "093614.997500", "093616.997500", "093618.997500", "093620.997500", "093622.997500", "093624.997500", "093626.997500", "093628.997500", "093630.997500", "093632.997500", "093634.997500", "093636.997500", "093638.997500", "093640.997500", "093642.997500", "093644.997500", "093646.997500", "093648.997500", "093650.997500"],
      "ContentTime": ["092033.124000", "092033.128000", "092033.131000", "092033.134000", "092033.137000", "092033.149000", "092033.152000", "092033.155000", "092033.163000", "092033.171000", "092033.173000", "092033.176000", "092033.179000", "092033.181000", "092033.184000", "092033.186000", "092033.189000", "092033.191000", "092033.194000", "092033.196000", "092033.199000", "092033.202000", "092033.204000", "092033.207000", "092113.115000", "092113.118000", "092113.121000", "092113.124000", "092113.126000", "092113.129000", "092113.131000", "092113.134000", "092113.136000", "092113.139000", "092113.141000", "092113.144000", "092113.146000", "092113.149000", "092113.152000", "092113.154000", "092113.157000", "092113.159000", "092113.162000", "092113.165000", "092153.115000", "092153.118000", "092153.121000", "092153.124000", "092153.126000", "092153.129000", "092153.131000", "092153.138000", "092153.140000", "092153.143000", "092153.145000", "092153.148000", "092153.150000", "092153.153000", "092153.155000", "092153.158000", "092153.160000", "092153.163000", "092153.165000", "092153.168000", "092213.115000", "092213.118000", "092213.121000", "092213.123000", "092213.126000", "092213.128000", "092213.140000", "092213.143000", "092213.145000", "092213.147000", "092253.115000", "092253.118000", "092253.121000", "092253.123000", "092253.126000", "092253.128000", "092253.131000", "092253.133000", "092253.136000", "092253.138000", "092253.141000", "092253.143000", "092253.146000", "092253.148000", "092253.151000", "092253.153000", "092253.156000", "092253.158000", "092253.161000", "092253.163000", "092333.115000", "092333.118000", "092333.121000", "092333.124000", "092333.126000", "092333.129000", "092333.131000", "092333.133000", "092333.136000", "092333.138000", "092333.141000", "092333.143000", "092333.146000", "092333.160000", "092333.162000", "092333.165000", "092333.167000", "092333.170000", "092333.172000", "092333.175000", "092413.115000", "092413.118000", "092413.120000", "092413.123000", "092413.126000", "092413.128000", "092413.131000", "092413.133000", "092413.136000", "092413.138000", "092413.140000", "092413.143000", "092413.145000", "092413.148000", "092413.151000", "092413.153000", "092413.156000", "092413.158000", "092413.160000", "092413.163000", "092453.115000", "092453.118000", "092453.121000", "092453.123000", "092453.126000", "092453.128000", "092453.131000", "092453.133000", "092453.136000", "092453.138000", "092453.141000", "092453.151000", "092453.153000", "092453.155000", "092453.158000", "092453.161000", "092453.163000", "092453.166000", "092453.168000", "092453.171000", "092533.116000", "092533.119000", "092533.122000", "092533.124000", "092533.127000", "092533.129000", "092533.131000", "092533.134000", "092533.136000", "092533.139000", "092533.141000", "092533.144000", "092533.146000", "092533.149000", "092533.151000", "092533.154000", "092533.157000", "092533.159000", "092533.162000", "092533.164000", "092613.115000", "092613.118000", "092613.121000", "092613.124000", "092613.126000", "092613.129000", "092613.131000", "092613.134000", "092613.136000", "092613.139000", "092613.141000", "092613.144000", "092613.146000", "092613.149000", "092613.151000", "092613.154000", "092613.156000", "092613.159000", "092613.161000", "092613.164000", "092653.115000", "092653.118000", "092653.122000", "092653.124000", "092653.127000", "092653.129000", "092653.132000", "092653.134000", "092653.137000", "092653.139000", "092653.142000", "092653.144000", "092653.147000", "092653.149000", "092653.152000", "092653.154000", "092653.157000", "092653.159000", "092653.162000", "092653.164000", "092733.115000", "092733.118000", "092733.122000", "092733.124000", "092733.127000", "092733.129000", "092733.132000", "092733.134000", "092733.137000", "092733.139000", "092733.142000", "092733.144000", "092733.147000", "092733.149000", "092733.152000", "092733.154000", "092733.157000", "092733.159000", "092733.162000", "092733.164000", "092813.115000", "092813.118000", "092813.121000", "092813.124000", "092813.126000", "092813.129000", "092813.131000", "092813.134000", "092813.136000", "092813.139000", "092813.141000", "092813.143000", "092813.146000", "092813.148000", "092813.151000", "092813.153000", "092813.156000", "092813.158000", "092813.161000", "092813.163000", "092853.115000", "092853.129000", "092853.132000", "092853.134000", "092853.137000", "092853.139000", "092853.142000", "092853.144000", "092853.147000", "092853.149000", "092853.151000", "092853.154000", "092853.156000", "092853.159000", "092853.162000", "092853.164000", "092853.166000", "092853.169000", "092853.171000", "092853.174000", "092933.115000", "092933.118000", "092933.121000", "092933.123000", "092933.126000", "092933.128000", "092933.131000", "092933.133000", "092933.136000", "092933.138000", "092933.141000", "092933.143000", "092933.145000", "092933.148000", "092933.150000", "092933.153000", "092933.155000", "092933.158000", "092933.160000", "092933.163000", "093013.116000", "093013.119000", "093013.122000", "093013.125000", "093013.127000", "093013.130000", "093013.132000", "093013.135000", "093013.137000", "093013.140000", "093013.142000", "093013.145000", "093013.147000", "093013.150000", "093013.152000", "093013.155000", "093013.157000", "093013.159000", "093013.162000", "093013.164000", "093053.115000", "093053.118000", "093053.122000", "093053.125000", "093053.127000", "093053.130000", "093053.132000", "093053.135000", "093053.137000", "093053.140000", "093053.142000", "093053.145000", "093053.147000", "093053.149000", "093053.152000", "093053.154000", "093053.157000", "093053.159000", "093053.162000", "093053.164000", "093133.115000", "093133.119000", "093133.122000", "093133.124000", "093133.127000", "093133.129000", "093133.132000", "093133.135000", "093133.137000", "093133.139000", "093133.142000", "093133.144000", "093133.147000", "093133.149000", "093133.152000", "093133.154000", "093133.157000", "093133.159000", "093133.162000", "093133.164000", "093213.115000", "093213.118000", "093213.121000", "093213.124000", "093213.126000", "093213.129000", "093213.131000", "093213.134000", "093213.136000", "093213.139000", "093213.141000", "093213.144000", "093213.146000", "093213.149000", "093213.151000", "093213.154000", "093213.156000", "093213.159000", "093213.161000", "093213.163000", "093253.115000", "093253.118000", "093253.121000", "093253.123000", "093253.126000", "093253.128000", "093253.131000", "093253.133000", "093253.136000", "093253.138000", "093253.141000", "093253.143000", "093253.146000", "093253.148000", "093253.151000", "093253.153000", "093253.156000", "093253.158000", "093253.161000", "093253.163000", "093333.115000", "093333.118000", "093333.121000", "093333.123000", "093333.126000", "093333.128000", "093333.131000", "093333.133000", "093333.136000", "093333.138000", "093333.141000", "093333.143000", "093333.146000", "093333.148000", "093333.151000", "093333.153000", "093333.156000", "093333.158000", "093333.161000", "093333.163000", "093413.115000", "093413.119000", "093413.122000", "093413.124000", "093413.126000", "093413.129000", "093413.131000", "093413.134000", "093413.136000", "093413.139000", "093413.141000", "093413.144000", "093413.147000", "093413.149000", "093413.152000", "093413.154000", "093413.157000", "093413.159000", "093413.162000", "093413.164000", "093453.115000", "093453.118000", "093453.121000", "093453.124000", "093453.126000", "093453.129000", "093453.131000", "093453.133000", "093453.136000", "093453.138000", "093453.141000", "093453.143000", "093453.146000", "093453.149000", "093453.151000", "093453.153000", "093453.156000", "093453.158000", "093453.161000", "093453.163000", "093533.115000", "093533.118000", "093533.122000", "093533.124000", "093533.126000", "093533.129000", "093533.131000", "093533.134000", "093533.136000", "093533.139000", "093533.141000", "093533.144000", "093533.146000", "093533.149000", "093533.151000", "093533.154000", "093533.156000", "093533.159000", "093533.161000", "093533.164000", "093613.115000", "093613.118000", "093613.121000", "093613.123000", "093613.126000", "093613.128000", "093613.131000", "093613.133000", "093613.136000", "093613.138000", "093613.141000", "093613.143000", "093613.146000", "093613.148000", "093613.151000", "093613.153000", "093613.156000", "093613.158000", "093613.161000", "093613.163000", "093652.111000", "093652.114000", "093652.117000", "093652.119000", "093652.122000", "093652.124000", "093652.127000", "093652.129000", "093652.132000", "093652.134000", "093652.137000", "093652.139000", "093652.150000", "093652.153000", "093652.157000", "093652.163000", "093652.188000", "093652.191000", "093652.194000", "093652.197000"],
