{
  "AcquisitionMatrixPE": 64,
  "AcquisitionNumber": 1,
  "AcquisitionTime": "11:22:43.902500",
  "BandwidthPerPixelPhaseEncode": 25.202,
  "BaseResolution": 64,
  "BodyPartExamined": "BRAIN",
  "ConsistencyInfo": "N4_VD13C_LATEST_20121124",
  "ConversionSoftware": "dcm2niix",
  "ConversionSoftwareVersion": "v1.0.20201102",
  "DerivedVendorReportedEchoSpacing": 0.00061999,
  "DeviceSerialNumber": "45758",
  "DwellTime": 4.3e-06,
  "EchoTime": 0.03,
  "EchoTrainLength": 64,
  "EffectiveEchoSpacing": 0.00061999,
  "FlipAngle": 90,
  "ImageOrientationPatientDICOM": [0.999979, -0.0051584, -0.00394749, 0.00523593, 0.999789, 0.0198874],
  "ImageType": [
    "ORIGINAL",
    "PRIMARY",
    "M",
    "ND",
    "MOSAIC"
],
  "ImagingFrequency": 123.2,
  "InPlanePhaseEncodingDirectionDICOM": "ROW",
  "InstitutionAddress": "Street StreetNo,City /652E4B/,District,KR,ZIP",
  "InstitutionName": "DGMIF",
  "InstitutionalDepartmentName": "Department",
  "MRAcquisitionType": "2D",
  "MagneticFieldStrength": 3,
  "Manufacturer": "Siemens",
  "ManufacturersModelName": "Skyra",
  "Modality": "MR",
  "PartialFourier": 1,
  "PatientPosition": "HFS",
  "PercentPhaseFOV": 100,
  "PercentSampling": 100,
  "PhaseEncodingDirection": "i",
  "PhaseEncodingSteps": 64,
  "PhaseResolution": 1,
  "PixelBandwidth": 1815,
  "ProcedureStepDescription": "DGMIF^DGIST_Jeon",
  "ProtocolName": "EPI_DGIST_2",
  "PulseSequenceDetails": "%SiemensSeq%\\ep2d_bold",
  "ReceiveCoilActiveElements": "HC1-6",
  "ReceiveCoilName": "HeadNeck_64",
  "ReconMatrixPE": 64,
  "RepetitionTime": 2,
  "SAR": 0.127938,
  "ScanOptions": "FS",
  "ScanningSequence": "EP",
  "SequenceName": "*epfid2d1_64",
  "SequenceVariant": "SK",
  "SeriesDescription": "EPI_DGIST_2",
  "SeriesNumber": 3,
  "ShimSetting": [-9732, -13711, -8135, 267, -316, -33, -49, -122],
  "SliceThickness": 4,
  "SliceTiming": [0.99, 0, 1.055, 0.065, 1.1225, 0.1325, 1.1875, 0.1975, 1.2525, 0.2625, 1.32, 0.33, 1.385, 0.395, 1.45, 0.4625, 1.5175, 0.5275, 1.5825, 0.5925, 1.65, 0.66, 1.715, 0.725, 1.78, 0.7925, 1.8475, 0.8575, 1.9125, 0.9225],
  "SoftwareVersions": "syngo MR D13C",
  "SpacingBetweenSlices": 4.8,
  "StationName": "AWP45758",
  "TaskName": "asrt",
  "TotalReadoutTime": 0.0390594,
  "TxRefAmp": 338.041,
  "dcmmeta_affine": [
    [-2.999936819076538, 0.015707777813076973, -0.018451541662216187, 93.60110473632812],
    [0.015475201420485973, 2.9993655681610107, 0.09555690735578537, -119.58432006835938],
    [-0.011842479929327965, -0.05966232344508171, 4.799013137817383, -73.5631103515625],
    [0.0, 0.0, 0.0, 1.0]
],
  "dcmmeta_reorient_transform": [
    [0.0, -1.0, 0.0, 63.0],
    [1.0, 0.0, 0.0, 0.0],
    [0.0, 0.0, 1.0, 0.0],
    [0.0, 0.0, 0.0, 1.0]
],
  "dcmmeta_shape": [64, 64, 30, 364],
  "dcmmeta_slice_dim": 2,
  "dcmmeta_version": 0.6,
  "global": {
    "const": {
      "AcquisitionMatrix": [0, 64, 64, 0],
      "AngioFlag": "N",
      "BitsAllocated": 16,
      "BitsStored": 12,
      "BodyPartExamined": "BRAIN",
      "Columns": 384,
      "EchoNumbers": 1,
      "EchoTime": 30.0,
      "EchoTrainLength": 64,
      "FlipAngle": 90.0,
      "HighBit": 11,
      "ImageOrientationPatient": [0.99997890387716, -0.005158400557, -0.0039474934244, 0.00523592563135, 0.99978851503252, 0.01988744055579],
      "ImagePositionPatient": [-577.09381621687, -546.79816793804, -84.973012636075],
      "ImageType": [
        "ORIGINAL",
        "PRIMARY",
        "M",
        "ND",
        "MOSAIC"
],
      "ImagedNucleus": "1H",
      "ImagingFrequency": 123.200204,
      "InPlanePhaseEncodingDirection": "ROW",
      "MRAcquisitionType": "2D",
      "MagneticFieldStrength": 3.0,
      "Manufacturer": "SIEMENS",
      "ManufacturerModelName": "Skyra",
      "Modality": "MR",
      "NumberOfAverages": 1.0,
      "NumberOfPhaseEncodingSteps": 64,
      "PercentPhaseFieldOfView": 100.0,
      "PercentSampling": 100.0,
      "PerformedProcedureStepStartTime": "110015.552000",
      "PhotometricInterpretation": "MONOCHROME2",
      "PixelBandwidth": 1815.0,
      "PixelRepresentation": 0,
      "PixelSpacing": [3.0, 3.0],
      "ProtocolName": "EPI_DGIST_2",
      "RepetitionTime": 2000.0,
      "Rows": 384,
      "SAR": 0.1279382001248,
      "SamplesPerPixel": 1,
      "ScanOptions": "FS",
      "ScanningSequence": "EP",
      "SequenceName": "*epfid2d1_64",
      "SequenceVariant": "SK",
      "SeriesDescription": "EPI_DGIST_2",
      "SeriesNumber": 3,
      "SeriesTime": "112339.305000",
      "SliceLocation": -76.288446351666,
      "SliceThickness": 4.0,
      "SmallestImagePixelValue": 0,
      "SoftwareVersions": "syngo MR D13C",
      "SpacingBetweenSlices": 4.7999999283175,
      "SpecificCharacterSet": "ISO_IR 100",
      "StudyID": "1",
      "StudyTime": "110015.495000",
      "TimeOfLastCalibration": ["123723.000000", "123723.000000"],
      "TransmitCoilName": "Body",
      "VariableFlipAngleFlag": "N",
      "WindowCenterWidthExplanation": "Algo1",
      "dBdt": 0.0},
    "slices": {}
  },
  "time": {
    "samples": {
      "AcquisitionNumber": [1, 2, 3, 4, 5, 6, 7, 8, 9, 10, 11, 12, 13, 14, 15, 16, 17, 18, 19, 20, 21, 22, 23, 24, 25, 26, 27, 28, 29, 30, 31, 32, 33, 34, 35, 36, 37, 38, 39, 40, 41, 42, 43, 44, 45, 46, 47, 48, 49, 50, 51, 52, 53, 54, 55, 56, 57, 58, 59, 60, 61, 62, 63, 64, 65, 66, 67, 68, 69, 70, 71, 72, 73, 74, 75, 76, 77, 78, 79, 80, 81, 82, 83, 84, 85, 86, 87, 88, 89, 90, 91, 92, 93, 94, 95, 96, 97, 98, 99, 100, 101, 102, 103, 104, 105, 106, 107, 108, 109, 110, 111, 112, 113, 114, 115, 116, 117, 118, 119, 120, 121, 122, 123, 124, 125, 126, 127, 128, 129, 130, 131, 132, 133, 134, 135, 136, 137, 138, 139, 140, 141, 142, 143, 144, 145, 146, 147, 148, 149, 150, 151, 152, 153, 154, 155, 156, 157, 158, 159, 160, 161, 162, 163, 164, 165, 166, 167, 168, 169, 170, 171, 172, 173, 174, 175, 176, 177, 178, 179, 180, 181, 182, 183, 184, 185, 186, 187, 188, 189, 190, 191, 192, 193, 194, 195, 196, 197, 198, 199, 200, 201, 202, 203, 204, 205, 206, 207, 208, 209, 210, 211, 212, 213, 214, 215, 216, 217, 218, 219, 220, 221, 222, 223, 224, 225, 226, 227, 228, 229, 230, 231, 232, 233, 234, 235, 236, 237, 238, 239, 240, 241, 242, 243, 244, 245, 246, 247, 248, 249, 250, 251, 252, 253, 254, 255, 256, 257, 258, 259, 260, 261, 262, 263, 264, 265, 266, 267, 268, 269, 270, 271, 272, 273, 274, 275, 276, 277, 278, 279, 280, 281, 282, 283, 284, 285, 286, 287, 288, 289, 290, 291, 292, 293, 294, 295, 296, 297, 298, 299, 300, 301, 302, 303, 304, 305, 306, 307, 308, 309, 310, 311, 312, 313, 314, 315, 316, 317, 318, 319, 320, 321, 322, 323, 324, 325, 326, 327, 328, 329, 330, 331, 332, 333, 334, 335, 336, 337, 338, 339, 340, 341, 342, 343, 344, 345, 346, 347, 348, 349, 350, 351, 352, 353, 354, 355, 356, 357, 358, 359, 360, 361, 362, 363, 364],
      "AcquisitionTime": ["112243.902500", "112245.902500", "112247.902500", "112249.902500", "112251.902500", "112253.902500", "112255.902500", "112257.902500", "112259.902500", "112301.902500", "112303.902500", "112305.902500", "112307.902500", "112309.902500", "112311.902500", "112313.902500", "112315.902500", "112317.902500", "112319.902500", "112321.902500", "112323.902500", "112325.902500", "112327.902500", "112329.902500", "112331.902500", "112333.902500", "112335.902500", "112337.902500", "112339.902500", "112341.902500", "112343.902500", "112345.902500", "112347.902500", "112349.902500", "112351.902500", "112353.902500", "112355.902500", "112357.902500", "112359.902500", "112401.902500", "112403.902500", "112405.902500", "112407.902500", "112409.902500", "112411.902500", "112413.902500", "112415.902500", "112417.902500", "112419.902500", "112421.902500", "112423.902500", "112425.902500", "112427.902500", "112429.902500", "112431.902500", "112433.902500", "112435.902500", "112437.902500", "112439.902500", "112441.902500", "112443.902500", "112445.902500", "112447.902500", "112449.902500", "112451.902500", "112453.902500", "112455.902500", "112457.902500", "112459.902500", "112501.902500", "112503.902500", "112505.902500", "112507.902500", "112509.902500", "112511.902500", "112513.902500", "112515.902500", "112517.902500", "112519.902500", "112521.902500", "112523.902500", "112525.902500", "112527.902500", "112529.902500", "112531.902500", "112533.902500", "112535.902500", "112537.902500", "112539.902500", "112541.902500", "112543.902500", "112545.902500", "112547.902500", "112549.902500", "112551.902500", "112553.902500", "112555.902500", "112557.902500", "112559.902500", "112601.902500", "112603.902500", "112605.902500", "112607.902500", "112609.902500", "112611.902500", "112613.902500", "112615.902500", "112617.902500", "112619.902500", "112621.902500", "112623.902500", "112625.902500", "112627.902500", "112629.902500", "112631.902500", "112633.902500", "112635.902500", "112637.902500", "112639.902500", "112641.902500", "112643.902500", "112645.902500", "112647.902500", "112649.902500", "112651.902500", "112653.902500", "112655.902500", "112657.902500", "112659.902500", "112701.902500", "112703.902500", "112705.902500", "112707.902500", "112709.902500", "112711.902500", "112713.902500", "112715.902500", "112717.902500", "112719.902500", "112721.902500", "112723.902500", "112725.902500", "112727.902500", "112729.902500", "112731.902500", "112733.902500", "112735.902500", "112737.902500", "112739.902500", "112741.902500", "112743.902500", "112745.902500", "112747.902500", "112749.902500", "112751.902500", "112753.902500", "112755.902500", "112757.902500", "112759.902500", "112801.902500", "112803.902500", "112805.902500", "112807.902500", "112809.902500", "112811.902500", "112813.902500", "112815.902500", "112817.902500", "112819.902500", "112821.902500", "112823.902500", "112825.902500", "112827.902500", "112829.902500", "112831.902500", "112833.902500", "112835.902500", "112837.902500", "112839.902500", "112841.902500", "112843.902500", "112845.902500", "112847.902500", "112849.902500", "112851.902500", "112853.902500", "112855.902500", "112857.902500", "112859.902500", "112901.902500", "112903.902500", "112905.902500", "112907.902500", "112909.902500", "112911.902500", "112913.905000", "112915.905000", "112917.905000", "112919.905000", "112921.905000", "112923.905000", "112925.905000", "112927.905000", "112929.905000", "112931.905000", "112933.905000", "112935.905000", "112937.905000", "112939.905000", "112941.905000", "112943.905000", "112945.905000", "112947.905000", "112949.905000", "112951.905000", "112953.905000", "112955.905000", "112957.905000", "112959.905000", "113001.905000", "113003.905000", "113005.905000", "113007.905000", "113009.905000", "113011.905000", "113013.905000", "113015.905000", "113017.905000", "113019.905000", "113021.905000", "113023.905000", "113025.905000", "113027.905000", "113029.905000", "113031.905000", "113033.905000", "113035.905000", "113037.905000", "113039.905000", "113041.905000", "113043.905000", "113045.905000", "113047.905000", "113049.905000", "113051.905000", "113053.905000", "113055.905000", "113057.905000", "113059.905000", "113101.905000", "113103.905000", "113105.905000", "113107.905000", "113109.905000", "113111.905000", "113113.905000", "113115.905000", "113117.905000", "113119.905000", "113121.905000", "113123.905000", "113125.905000", "113127.905000", "113129.905000", "113131.905000", "113133.905000", "113135.905000", "113137.905000", "113139.905000", "113141.905000", "113143.905000", "113145.905000", "113147.905000", "113149.905000", "113151.905000", "113153.905000", "113155.905000", "113157.905000", "113159.905000", "113201.905000", "113203.905000", "113205.905000", "113207.905000", "113209.905000", "113211.905000", "113213.905000", "113215.905000", "113217.905000", "113219.905000", "113221.905000", "113223.905000", "113225.905000", "113227.905000", "113229.905000", "113231.905000", "113233.905000", "113235.905000", "113237.905000", "113239.905000", "113241.905000", "113243.905000", "113245.905000", "113247.905000", "113249.905000", "113251.905000", "113253.905000", "113255.905000", "113257.905000", "113259.905000", "113301.905000", "113303.905000", "113305.905000", "113307.905000", "113309.905000", "113311.905000", "113313.905000", "113315.905000", "113317.905000", "113319.905000", "113321.905000", "113323.905000", "113325.905000", "113327.905000", "113329.905000", "113331.905000", "113333.905000", "113335.905000", "113337.905000", "113339.905000", "113341.905000", "113343.905000", "113345.905000", "113347.905000", "113349.905000", "113351.905000", "113353.905000", "113355.905000", "113357.905000", "113359.905000", "113401.905000", "113403.905000", "113405.905000", "113407.905000", "113409.905000", "113411.905000", "113413.905000", "113415.905000", "113417.905000", "113419.905000", "113421.905000", "113423.905000", "113425.905000", "113427.905000", "113429.905000", "113431.905000", "113433.905000", "113435.905000", "113437.905000", "113439.905000", "113441.905000", "113443.905000", "113445.905000", "113447.905000", "113449.905000"],
      "ContentTime": ["112339.308000", "112339.310000", "112339.312000", "112339.314000", "112339.316000", "112339.318000", "112339.320000", "112339.322000", "112339.324000", "112339.326000", "112339.328000", "112339.330000", "112339.332000", "112339.334000", "112339.336000", "112339.338000", "112339.339000", "112339.341000", "112339.343000", "112339.345000", "112339.356000", "112339.358000", "112339.360000", "112339.361000", "112339.363000", "112339.370000", "112339.372000", "112419.303000", "112419.305000", "112419.307000", "112419.309000", "112419.311000", "112419.313000", "112419.315000", "112419.317000", "112419.319000", "112419.321000", "112419.323000", "112419.325000", "112419.327000", "112419.329000", "112419.331000", "112419.333000", "112419.335000", "112419.337000", "112419.339000", "112419.341000", "112419.343000", "112519.303000", "112519.305000", "112519.307000", "112519.309000", "112519.311000", "112519.318000", "112519.320000", "112519.322000", "112519.324000", "112519.326000", "112519.328000", "112519.330000", "112519.332000", "112519.334000", "112519.336000", "112519.338000", "112519.340000", "112519.341000", "112519.343000", "112519.345000", "112519.347000", "112519.349000", "112519.351000", "112519.353000", "112519.355000", "112519.357000", "112519.359000", "112519.361000", "112519.363000", "112559.303000", "112559.305000", "112559.307000", "112559.309000", "112559.316000", "112559.318000", "112559.320000", "112559.322000", "112559.324000", "112559.326000", "112559.328000", "112559.330000", "112559.332000", "112559.334000", "112559.336000", "112559.337000", "112559.339000", "112559.346000", "112559.348000", "112559.350000", "112639.303000", "112639.305000", "112639.307000", "112639.309000", "112639.311000", "112639.313000", "112639.315000", "112639.317000", "112639.319000", "112639.321000", "112639.323000", "112639.325000", "112639.327000", "112639.329000", "112639.331000", "112639.333000", "112639.335000", "112639.337000", "112639.338000", "112639.340000", "112719.303000", "112719.305000", "112719.307000", "112719.309000", "112719.311000", "112719.313000", "112719.315000", "112719.317000", "112719.319000", "112719.321000", "112719.323000", "112719.325000", "112719.327000", "112719.329000", "112719.331000", "112719.333000", "112719.335000", "112719.337000", "112719.338000", "112719.340000", "112759.303000", "112759.305000", "112759.307000", "112759.309000", "112759.311000", "112759.313000", "112759.315000", "112759.317000", "112759.319000", "112759.321000", "112759.323000", "112759.325000", "112759.327000", "112759.329000", "112759.331000", "112759.333000", "112759.335000", "112759.337000", "112759.339000", "112759.340000", "112839.302000", "112839.304000", "112839.306000", "112839.312000", "112839.314000", "112839.316000", "112839.318000", "112839.319000", "112839.321000", "112839.323000", "112839.325000", "112839.327000", "112839.329000", "112839.345000", "112839.347000", "112839.349000", "112839.351000", "112839.353000", "112839.355000", "112839.357000", "112919.303000", "112919.305000", "112919.307000", "112919.309000", "112919.311000", "112919.313000", "112919.315000", "112919.317000", "112919.319000", "112919.321000", "112919.323000", "112919.325000", "112919.327000", "112919.329000", "112919.331000", "112919.333000", "112919.335000", "112919.337000", "112919.339000", "112919.341000", "112939.303000", "112939.305000", "112939.307000", "112939.309000", "112939.311000", "112939.313000", "112939.315000", "112939.317000", "112939.319000", "112939.321000", "113019.303000", "113019.305000", "113019.307000", "113019.309000", "113019.311000", "113019.313000", "113019.315000", "113019.317000", "113019.319000", "113019.321000", "113019.323000", "113019.325000", "113019.327000", "113019.329000", "113019.331000", "113019.333000", "113019.335000", "113019.337000", "113019.339000", "113019.341000", "113059.302000", "113059.304000", "113059.306000", "113059.308000", "113059.310000", "113059.312000", "113059.314000", "113059.316000", "113059.318000", "113059.320000", "113059.322000", "113059.324000", "113059.326000", "113059.328000", "113059.330000", "113059.332000", "113059.334000", "113059.336000", "113059.338000", "113059.340000", "113139.303000", "113139.305000", "113139.307000", "113139.309000", "113139.311000", "113139.313000", "113139.315000", "113139.317000", "113139.319000", "113139.321000", "113139.323000", "113139.325000", "113139.327000", "113139.329000", "113139.331000", "113139.333000", "113139.335000", "113139.337000", "113139.339000", "113139.341000", "113219.303000", "113219.305000", "113219.307000", "113219.309000", "113219.311000", "113219.313000", "113219.315000", "113219.317000", "113219.319000", "113219.321000", "113219.323000", "113219.325000", "113219.327000", "113219.329000", "113219.331000", "113219.333000", "113219.335000", "113219.337000", "113219.339000", "113219.341000", "113219.343000", "113319.302000", "113319.304000", "113319.306000", "113319.308000", "113319.310000", "113319.312000", "113319.314000", "113319.316000", "113319.318000", "113319.320000", "113319.322000", "113319.324000", "113319.326000", "113319.328000", "113319.330000", "113319.332000", "113319.334000", "113319.336000", "113319.338000", "113319.340000", "113319.342000", "113319.344000", "113319.346000", "113319.348000", "113319.350000", "113319.351000", "113319.353000", "113319.355000", "113319.357000", "113359.303000", "113359.305000", "113359.307000", "113359.309000", "113359.311000", "113359.313000", "113359.315000", "113359.317000", "113359.319000", "113359.321000", "113359.323000", "113359.325000", "113359.327000", "113359.329000", "113359.331000", "113359.333000", "113359.335000", "113359.337000", "113359.339000", "113359.341000", "113439.303000", "113439.305000", "113439.307000", "113439.309000", "113439.311000", "113439.313000", "113439.315000", "113439.317000", "113439.319000", "113439.321000", "113439.323000", "113439.325000", "113439.327000", "113439.329000", "113439.331000", "113439.333000", "113439.335000", "113439.337000", "113439.339000", "113439.341000", "113451.287000", "113451.290000", "113451.292000", "113451.294000", "113451.296000", "113451.298000", "113451.300000"],
      "InstanceCreationTime": ["112339.308000", "112339.310000", "112339.312000", "112339.314000", "112339.316000", "112339.318000", "112339.320000", "112339.322000", "112339.324000", "112339.326000", "112339.328000", "112339.330000", "112339.332000", "112339.334000", "112339.336000", "112339.338000", "112339.339000", "112339.341000", "112339.343000", "112339.345000", "112339.356000", "112339.358000", "112339.360000", "112339.361000", "112339.363000", "112339.370000", "112339.372000", "112419.303000", "112419.305000", "112419.307000", "112419.309000", "112419.311000", "112419.313000", "112419.315000", "112419.317000", "112419.319000", "112419.321000", "112419.323000", "112419.325000", "112419.327000", "112419.329000", "112419.331000", "112419.333000", "112419.335000", "112419.337000", "112419.339000", "112419.341000", "112419.343000", "112519.303000", "112519.305000", "112519.307000", "112519.309000", "112519.311000", "112519.318000", "112519.320000", "112519.322000", "112519.324000", "112519.326000", "112519.328000", "112519.330000", "112519.332000", "112519.334000", "112519.336000", "112519.338000", "112519.340000", "112519.341000", "112519.343000", "112519.345000", "112519.347000", "112519.349000", "112519.351000", "112519.353000", "112519.355000", "112519.357000", "112519.359000", "112519.361000", "112519.363000", "112559.303000", "112559.305000", "112559.307000", "112559.309000", "112559.316000", "112559.318000", "112559.320000", "112559.322000", "112559.324000", "112559.326000", "112559.328000", "112559.330000", "112559.332000", "112559.334000", "112559.336000", "112559.337000", "112559.339000", "112559.346000", "112559.348000", "112559.350000", "112639.303000", "112639.305000", "112639.307000", "112639.309000", "112639.311000", "112639.313000", "112639.315000", "112639.317000", "112639.319000", "112639.321000", "112639.323000", "112639.325000", "112639.327000", "112639.329000", "112639.331000", "112639.333000", "112639.335000", "112639.337000", "112639.338000", "112639.340000", "112719.303000", "112719.305000", "112719.307000", "112719.309000", "112719.311000", "112719.313000", "112719.315000", "112719.317000", "112719.319000", "112719.321000", "112719.323000", "112719.325000", "112719.327000", "112719.329000", "112719.331000", "112719.333000", "112719.335000", "112719.337000", "112719.338000", "112719.340000", "112759.303000", "112759.305000", "112759.307000", "112759.309000", "112759.311000", "112759.313000", "112759.315000", "112759.317000", "112759.319000", "112759.321000", "112759.323000", "112759.325000", "112759.327000", "112759.329000", "112759.331000", "112759.333000", "112759.335000", "112759.337000", "112759.339000", "112759.340000", "112839.302000", "112839.304000", "112839.306000", "112839.312000", "112839.314000", "112839.316000", "112839.318000", "112839.319000", "112839.321000", "112839.323000", "112839.325000", "112839.327000", "112839.329000", "112839.345000", "112839.347000", "112839.349000", "112839.351000", "112839.353000", "112839.355000", "112839.357000", "112919.303000", "112919.305000", "112919.307000", "112919.309000", "112919.311000", "112919.313000", "112919.315000", "112919.317000", "112919.319000", "112919.321000", "112919.323000", "112919.325000", "112919.327000", "112919.329000", "112919.331000", "112919.333000", "112919.335000", "112919.337000", "112919.339000", "112919.341000", "112939.303000", "112939.305000", "112939.307000", "112939.309000", "112939.311000", "112939.313000", "112939.315000", "112939.317000", "112939.319000", "112939.321000", "113019.303000", "113019.305000", "113019.307000", "113019.309000", "113019.311000", "113019.313000", "113019.315000", "113019.317000", "113019.319000", "113019.321000", "113019.323000", "113019.325000", "113019.327000", "113019.329000", "113019.331000", "113019.333000", "113019.335000", "113019.337000", "113019.339000", "113019.341000", "113059.302000", "113059.304000", "113059.306000", "113059.308000", "113059.310000", "113059.312000", "113059.314000", "113059.316000", "113059.318000", "113059.320000", "113059.322000", "113059.324000", "113059.326000", "113059.328000", "113059.330000", "113059.332000", "113059.334000", "113059.336000", "113059.338000", "113059.340000", "113139.303000", "113139.305000", "113139.307000", "113139.309000", "113139.311000", "113139.313000", "113139.315000", "113139.317000", "113139.319000", "113139.321000", "113139.323000", "113139.325000", "113139.327000", "113139.329000", "113139.331000", "113139.333000", "113139.335000", "113139.337000", "113139.339000", "113139.341000", "113219.303000", "113219.305000", "113219.307000", "113219.309000", "113219.311000", "113219.313000", "113219.315000", "113219.317000", "113219.319000", "113219.321000", "113219.323000", "113219.325000", "113219.327000", "113219.329000", "113219.331000", "113219.333000", "113219.335000", "113219.337000", "113219.339000", "113219.341000", "113219.343000", "113319.302000", "113319.304000", "113319.306000", "113319.308000", "113319.310000", "113319.312000", "113319.314000", "113319.316000", "113319.318000", "113319.320000", "113319.322000", "113319.324000", "113319.326000", "113319.328000", "113319.330000", "113319.332000", "113319.334000", "113319.336000", "113319.338000", "113319.340000", "113319.342000", "113319.344000", "113319.346000", "113319.348000", "113319.350000", "113319.351000", "113319.353000", "113319.355000", "113319.357000", "113359.303000", "113359.305000", "113359.307000", "113359.309000", "113359.311000", "113359.313000", "113359.315000", "113359.317000", "113359.319000", "113359.321000", "113359.323000", "113359.325000", "113359.327000", "113359.329000", "113359.331000", "113359.333000", "113359.335000", "113359.337000", "113359.339000", "113359.341000", "113439.303000", "113439.305000", "113439.307000", "113439.309000", "113439.311000", "113439.313000", "113439.315000", "113439.317000", "113439.319000", "113439.321000", "113439.323000", "113439.325000", "113439.327000", "113439.329000", "113439.331000", "113439.333000", "113439.335000", "113439.337000", "113439.339000", "113439.341000", "113451.287000", "113451.290000", "113451.292000", "113451.294000", "113451.296000", "113451.298000", "113451.300000"],
      "InstanceNumber": [1, 2, 3, 4, 5, 6, 7, 8, 9, 10, 11, 12, 13, 14, 15, 16, 17, 18, 19, 20, 21, 22, 23, 24, 25, 26, 27, 28, 29, 30, 31, 32, 33, 34, 35, 36, 37, 38, 39, 40, 41, 42, 43, 44, 45, 46, 47, 48, 49, 50, 51, 52, 53, 54, 55, 56, 57, 58, 59, 60, 61, 62, 63, 64, 65, 66, 67, 68, 69, 70, 71, 72, 73, 74, 75, 76, 77, 78, 79, 80, 81, 82, 83, 84, 85, 86, 87, 88, 89, 90, 91, 92, 93, 94, 95, 96, 97, 98, 99, 100, 101, 102, 103, 104, 105, 106, 107, 108, 109, 110, 111, 112, 113, 114, 115, 116, 117, 118, 119, 120, 121, 122, 123, 124, 125, 126, 127, 128, 129, 130, 131, 132, 133, 134, 135, 136, 137, 138, 139, 140, 141, 142, 143, 144, 145, 146, 147, 148, 149, 150, 151, 152, 153, 154, 155, 156, 157, 158, 159, 160, 161, 162, 163, 164, 165, 166, 167, 168, 169, 170, 171, 172, 173, 174, 175, 176, 177, 178, 179, 180, 181, 182, 183, 184, 185, 186, 187, 188, 189, 190, 191, 192, 193, 194, 195, 196, 197, 198, 199, 200, 201, 202, 203, 204, 205, 206, 207, 208, 209, 210, 211, 212, 213, 214, 215, 216, 217, 218, 219, 220, 221, 222, 223, 224, 225, 226, 227, 228, 229, 230, 231, 232, 233, 234, 235, 236, 237, 238, 239, 240, 241, 242, 243, 244, 245, 246, 247, 248, 249, 250, 251, 252, 253, 254, 255, 256, 257, 258, 259, 260, 261, 262, 263, 264, 265, 266, 267, 268, 269, 270, 271, 272, 273, 274, 275, 276, 277, 278, 279, 280, 281, 282, 283, 284, 285, 286, 287, 288, 289, 290, 291, 292, 293, 294, 295, 296, 297, 298, 299, 300, 301, 302, 303, 304, 305, 306, 307, 308, 309, 310, 311, 312, 313, 314, 315, 316, 317, 318, 319, 320, 321, 322, 323, 324, 325, 326, 327, 328, 329, 330, 331, 332, 333, 334, 335, 336, 337, 338, 339, 340, 341, 342, 343, 344, 345, 346, 347, 348, 349, 350, 351, 352, 353, 354, 355, 356, 357, 358, 359, 360, 361, 362, 363, 364],
      "LargestImagePixelValue": [3206, 3070, 3083, 3051, 3044, 3081, 3059, 3040, 3056, 3059, 3057, 3014, 3036, 3046, 3040, 3036, 3048, 3017, 3016, 3024, 3012, 3012, 3000, 2987, 2983, 3007, 2994, 3001, 3018, 3008, 3016, 3022, 3014, 3016, 2993, 3016, 3022, 3018, 3050, 3025, 3016, 3041, 3018, 2996, 3006, 3008, 3001, 3001, 3005, 2992, 3018, 3017, 3030, 2992, 2987, 3017, 3026, 3013, 3026, 3023, 3268, 3040, 3016, 3009, 3179, 3093, 3023, 3058, 3052, 3040, 3042, 3060, 3053, 3062, 3080, 3085, 3094, 3107, 3106, 3090, 3098, 3095, 3077, 3085, 3073, 3080, 3087, 3079, 3086, 3089, 2997, 2975, 3076, 3055, 3026, 3025, 3021, 3013, 3036, 3010, 3033, 2990, 3005, 3015, 3011, 3014, 3010, 3018, 3009, 3006, 3015, 3025, 3027, 3025, 3037, 3036, 3039, 3047, 3052, 3039, 3071, 3070, 3148, 3078, 3063, 3079, 3074, 3062, 3074, 3064, 3086, 3071, 3073, 3095, 3098, 3084, 3073, 3056, 3072, 3062, 3069, 3070, 3060, 3024, 3037, 3043, 3034, 3038, 3060, 3047, 3044, 3099, 3071, 3033, 3049, 3053, 3052, 3050, 3085, 3057, 3068, 3043, 3063, 3057, 3032, 3052, 3030, 3034, 3032, 3042, 3039, 3054, 3057, 3064, 3050, 3057, 3061, 3044, 3051, 3014, 3008, 3037, 3093, 3082, 3039, 3078, 3089, 3089, 3091, 3056, 3064, 3058, 3048, 3041, 3035, 3018, 3009, 3034, 3007, 2993, 3021, 3030, 3018, 3031, 3018, 3004, 2993, 3002, 3026, 3020, 3056, 2955, 2876, 2905, 2904, 2964, 2964, 2944, 2944, 2924, 2979, 2976, 2971, 2986, 2945, 2902, 2912, 2950, 2951, 2961, 2957, 2952, 2936, 2950, 2940, 2983, 2922, 2944, 2964, 2931, 2964, 3019, 2954, 2953, 2928, 2952, 3019, 3003, 3032, 3039, 3028, 3008, 3015, 3042, 3025, 3028, 3034, 3034, 3021, 3010, 3026, 2999, 3009, 3028, 3002, 3003, 3015, 2977, 2995, 3006, 3037, 3068, 3081, 3028, 3040, 3087, 3050, 3019, 3023, 3005, 3006, 2990, 2996, 2974, 2990, 3010, 2952, 2969, 2956, 2951, 2964, 2951, 2934, 2958, 2948, 2938, 2951, 2962, 2969, 2937, 2956, 2989, 2981, 2972, 2987, 3003, 3009, 3015, 3048, 3029, 3046, 3053, 3020, 3013, 3010, 3021, 3008, 3018, 3042, 3020, 3014, 3013, 3012, 3010, 2997, 3024, 3003, 2982, 2976, 2964, 2943, 2997, 2996, 2996, 2927, 2969, 3013, 3009, 3018, 3044, 3054, 3021, 3031, 3034, 3022, 3047, 3045, 3022, 3026, 3032, 3075, 3044, 3030, 3025, 3039, 3041, 3052, 3050, 3063, 3028, 3050, 3107, 3184, 2935],
