{
  "AcquisitionMatrixPE": 64,
  "AcquisitionNumber": 1,
  "AcquisitionTime": "11:36:16.590000",
  "BandwidthPerPixelPhaseEncode": 25.202,
  "BaseResolution": 64,
  "BodyPartExamined": "BRAIN",
  "ConsistencyInfo": "N4_VD13C_LATEST_20121124",
  "ConversionSoftware": "dcm2niix",
  "ConversionSoftwareVersion": "v1.0.20201102",
  "DerivedVendorReportedEchoSpacing": 0.00061999,
  "DeviceSerialNumber": "45758",
  "DwellTime": 4.3e-06,
  "EchoTime": 0.03,
  "EchoTrainLength": 64,
  "EffectiveEchoSpacing": 0.00061999,
  "FlipAngle": 90,
  "ImageOrientationPatientDICOM": [0.999979, -0.0051584, -0.00394749, 0.00523593, 0.999789, 0.0198874],
  "ImageType": [
    "ORIGINAL",
    "PRIMARY",
    "M",
    "ND",
    "MOSAIC"
],
  "ImagingFrequency": 123.2,
  "InPlanePhaseEncodingDirectionDICOM": "ROW",
  "InstitutionAddress": "Street StreetNo,City /652E4B/,District,KR,ZIP",
  "InstitutionName": "DGMIF",
  "InstitutionalDepartmentName": "Department",
  "MRAcquisitionType": "2D",
  "MagneticFieldStrength": 3,
  "Manufacturer": "Siemens",
  "ManufacturersModelName": "Skyra",
  "Modality": "MR",
  "PartialFourier": 1,
  "PatientPosition": "HFS",
  "PercentPhaseFOV": 100,
  "PercentSampling": 100,
  "PhaseEncodingDirection": "i",
  "PhaseEncodingSteps": 64,
  "PhaseResolution": 1,
  "PixelBandwidth": 1815,
  "ProcedureStepDescription": "DGMIF^DGIST_Jeon",
  "ProtocolName": "EPI_DGIST_3",
  "PulseSequenceDetails": "%SiemensSeq%\\ep2d_bold",
  "ReceiveCoilActiveElements": "HC1-6",
  "ReceiveCoilName": "HeadNeck_64",
  "ReconMatrixPE": 64,
  "RepetitionTime": 2,
  "SAR": 0.127938,
  "ScanOptions": "FS",
  "ScanningSequence": "EP",
  "SequenceName": "*epfid2d1_64",
  "SequenceVariant": "SK",
  "SeriesDescription": "EPI_DGIST_3",
  "SeriesNumber": 4,
  "ShimSetting": [-9732, -13711, -8135, 267, -316, -33, -49, -122],
  "SliceThickness": 4,
  "SliceTiming": [0.99, 0, 1.0575, 0.0675, 1.1225, 0.1325, 1.1875, 0.1975, 1.255, 0.265, 1.32, 0.33, 1.385, 0.3975, 1.4525, 0.4625, 1.5175, 0.5275, 1.585, 0.595, 1.65, 0.66, 1.715, 0.7275, 1.7825, 0.7925, 1.8475, 0.8575, 1.915, 0.925],
  "SoftwareVersions": "syngo MR D13C",
  "SpacingBetweenSlices": 4.8,
  "StationName": "AWP45758",
  "TaskName": "asrt",
  "TotalReadoutTime": 0.0390594,
  "TxRefAmp": 338.041,
  "dcmmeta_affine": [
    [-2.999936819076538, 0.015707777813076973, -0.018451541662216187, 93.60110473632812],
    [0.015475201420485973, 2.9993655681610107, 0.09555690735578537, -119.58432006835938],
    [-0.011842479929327965, -0.05966232344508171, 4.799013137817383, -73.5631103515625],
    [0.0, 0.0, 0.0, 1.0]
],
  "dcmmeta_reorient_transform": [
    [0.0, -1.0, 0.0, 63.0],
    [1.0, 0.0, 0.0, 0.0],
    [0.0, 0.0, 1.0, 0.0],
    [0.0, 0.0, 0.0, 1.0]
],
  "dcmmeta_shape": [64, 64, 30, 364],
  "dcmmeta_slice_dim": 2,
  "dcmmeta_version": 0.6,
  "global": {
    "const": {
      "AcquisitionMatrix": [0, 64, 64, 0],
      "AngioFlag": "N",
      "BitsAllocated": 16,
      "BitsStored": 12,
      "BodyPartExamined": "BRAIN",
      "Columns": 384,
      "EchoNumbers": 1,
      "EchoTime": 30.0,
      "EchoTrainLength": 64,
      "FlipAngle": 90.0,
      "HighBit": 11,
      "ImageOrientationPatient": [0.99997890387716, -0.005158400557, -0.0039474934244, 0.00523592563135, 0.99978851503252, 0.01988744055579],
      "ImagePositionPatient": [-577.09381621687, -546.79816793804, -84.973012636075],
      "ImageType": [
        "ORIGINAL",
        "PRIMARY",
        "M",
        "ND",
        "MOSAIC"
],
      "ImagedNucleus": "1H",
      "ImagingFrequency": 123.200217,
      "InPlanePhaseEncodingDirection": "ROW",
      "MRAcquisitionType": "2D",
      "MagneticFieldStrength": 3.0,
      "Manufacturer": "SIEMENS",
      "ManufacturerModelName": "Skyra",
      "Modality": "MR",
      "NumberOfAverages": 1.0,
      "NumberOfPhaseEncodingSteps": 64,
      "PercentPhaseFieldOfView": 100.0,
      "PercentSampling": 100.0,
      "PerformedProcedureStepStartTime": "110015.552000",
      "PhotometricInterpretation": "MONOCHROME2",
      "PixelBandwidth": 1815.0,
      "PixelRepresentation": 0,
      "PixelSpacing": [3.0, 3.0],
      "ProtocolName": "EPI_DGIST_3",
      "RepetitionTime": 2000.0,
      "Rows": 384,
      "SAR": 0.1279382001248,
      "SamplesPerPixel": 1,
      "ScanOptions": "FS",
      "ScanningSequence": "EP",
      "SequenceName": "*epfid2d1_64",
      "SequenceVariant": "SK",
      "SeriesDescription": "EPI_DGIST_3",
      "SeriesNumber": 4,
      "SeriesTime": "113656.945000",
      "SliceLocation": -76.288446351666,
      "SliceThickness": 4.0,
      "SmallestImagePixelValue": 0,
      "SoftwareVersions": "syngo MR D13C",
      "SpacingBetweenSlices": 4.7999999283175,
      "SpecificCharacterSet": "ISO_IR 100",
      "StudyID": "1",
      "StudyTime": "110015.495000",
      "TimeOfLastCalibration": ["123723.000000", "123723.000000"],
      "TransmitCoilName": "Body",
      "VariableFlipAngleFlag": "N",
      "WindowCenterWidthExplanation": "Algo1",
      "dBdt": 0.0},
    "slices": {}
  },
  "time": {
    "samples": {
      "AcquisitionNumber": [1, 2, 3, 4, 5, 6, 7, 8, 9, 10, 11, 12, 13, 14, 15, 16, 17, 18, 19, 20, 21, 22, 23, 24, 25, 26, 27, 28, 29, 30, 31, 32, 33, 34, 35, 36, 37, 38, 39, 40, 41, 42, 43, 44, 45, 46, 47, 48, 49, 50, 51, 52, 53, 54, 55, 56, 57, 58, 59, 60, 61, 62, 63, 64, 65, 66, 67, 68, 69, 70, 71, 72, 73, 74, 75, 76, 77, 78, 79, 80, 81, 82, 83, 84, 85, 86, 87, 88, 89, 90, 91, 92, 93, 94, 95, 96, 97, 98, 99, 100, 101, 102, 103, 104, 105, 106, 107, 108, 109, 110, 111, 112, 113, 114, 115, 116, 117, 118, 119, 120, 121, 122, 123, 124, 125, 126, 127, 128, 129, 130, 131, 132, 133, 134, 135, 136, 137, 138, 139, 140, 141, 142, 143, 144, 145, 146, 147, 148, 149, 150, 151, 152, 153, 154, 155, 156, 157, 158, 159, 160, 161, 162, 163, 164, 165, 166, 167, 168, 169, 170, 171, 172, 173, 174, 175, 176, 177, 178, 179, 180, 181, 182, 183, 184, 185, 186, 187, 188, 189, 190, 191, 192, 193, 194, 195, 196, 197, 198, 199, 200, 201, 202, 203, 204, 205, 206, 207, 208, 209, 210, 211, 212, 213, 214, 215, 216, 217, 218, 219, 220, 221, 222, 223, 224, 225, 226, 227, 228, 229, 230, 231, 232, 233, 234, 235, 236, 237, 238, 239, 240, 241, 242, 243, 244, 245, 246, 247, 248, 249, 250, 251, 252, 253, 254, 255, 256, 257, 258, 259, 260, 261, 262, 263, 264, 265, 266, 267, 268, 269, 270, 271, 272, 273, 274, 275, 276, 277, 278, 279, 280, 281, 282, 283, 284, 285, 286, 287, 288, 289, 290, 291, 292, 293, 294, 295, 296, 297, 298, 299, 300, 301, 302, 303, 304, 305, 306, 307, 308, 309, 310, 311, 312, 313, 314, 315, 316, 317, 318, 319, 320, 321, 322, 323, 324, 325, 326, 327, 328, 329, 330, 331, 332, 333, 334, 335, 336, 337, 338, 339, 340, 341, 342, 343, 344, 345, 346, 347, 348, 349, 350, 351, 352, 353, 354, 355, 356, 357, 358, 359, 360, 361, 362, 363, 364],
      "AcquisitionTime": ["113616.590000", "113618.590000", "113620.590000", "113622.590000", "113624.590000", "113626.590000", "113628.590000", "113630.590000", "113632.590000", "113634.590000", "113636.590000", "113638.590000", "113640.590000", "113642.590000", "113644.590000", "113646.590000", "113648.590000", "113650.590000", "113652.590000", "113654.590000", "113656.590000", "113658.590000", "113700.590000", "113702.590000", "113704.590000", "113706.590000", "113708.590000", "113710.590000", "113712.590000", "113714.590000", "113716.590000", "113718.590000", "113720.590000", "113722.590000", "113724.590000", "113726.590000", "113728.590000", "113730.590000", "113732.590000", "113734.590000", "113736.590000", "113738.590000", "113740.590000", "113742.590000", "113744.590000", "113746.590000", "113748.590000", "113750.590000", "113752.590000", "113754.590000", "113756.590000", "113758.590000", "113800.590000", "113802.590000", "113804.590000", "113806.590000", "113808.590000", "113810.590000", "113812.590000", "113814.590000", "113816.590000", "113818.590000", "113820.590000", "113822.590000", "113824.590000", "113826.590000", "113828.590000", "113830.590000", "113832.590000", "113834.590000", "113836.590000", "113838.590000", "113840.590000", "113842.590000", "113844.590000", "113846.590000", "113848.590000", "113850.590000", "113852.590000", "113854.590000", "113856.590000", "113858.590000", "113900.590000", "113902.590000", "113904.590000", "113906.590000", "113908.590000", "113910.590000", "113912.590000", "113914.590000", "113916.590000", "113918.590000", "113920.590000", "113922.590000", "113924.590000", "113926.590000", "113928.590000", "113930.590000", "113932.590000", "113934.592500", "113936.592500", "113938.592500", "113940.592500", "113942.592500", "113944.592500", "113946.592500", "113948.592500", "113950.592500", "113952.592500", "113954.592500", "113956.592500", "113958.592500", "114000.592500", "114002.592500", "114004.592500", "114006.592500", "114008.592500", "114010.592500", "114012.592500", "114014.592500", "114016.592500", "114018.592500", "114020.592500", "114022.592500", "114024.592500", "114026.592500", "114028.592500", "114030.592500", "114032.592500", "114034.592500", "114036.592500", "114038.592500", "114040.592500", "114042.592500", "114044.592500", "114046.592500", "114048.592500", "114050.592500", "114052.592500", "114054.592500", "114056.592500", "114058.592500", "114100.592500", "114102.592500", "114104.592500", "114106.592500", "114108.592500", "114110.592500", "114112.592500", "114114.592500", "114116.592500", "114118.592500", "114120.592500", "114122.592500", "114124.592500", "114126.592500", "114128.592500", "114130.592500", "114132.592500", "114134.592500", "114136.592500", "114138.592500", "114140.592500", "114142.592500", "114144.592500", "114146.592500", "114148.592500", "114150.592500", "114152.592500", "114154.592500", "114156.592500", "114158.592500", "114200.592500", "114202.592500", "114204.592500", "114206.592500", "114208.592500", "114210.592500", "114212.592500", "114214.592500", "114216.592500", "114218.592500", "114220.592500", "114222.592500", "114224.592500", "114226.592500", "114228.592500", "114230.592500", "114232.592500", "114234.592500", "114236.592500", "114238.592500", "114240.592500", "114242.592500", "114244.592500", "114246.592500", "114248.592500", "114250.592500", "114252.592500", "114254.592500", "114256.592500", "114258.592500", "114300.592500", "114302.592500", "114304.592500", "114306.592500", "114308.592500", "114310.592500", "114312.592500", "114314.592500", "114316.592500", "114318.592500", "114320.592500", "114322.592500", "114324.592500", "114326.592500", "114328.592500", "114330.592500", "114332.592500", "114334.592500", "114336.592500", "114338.592500", "114340.592500", "114342.592500", "114344.592500", "114346.592500", "114348.592500", "114350.592500", "114352.592500", "114354.592500", "114356.592500", "114358.592500", "114400.592500", "114402.592500", "114404.592500", "114406.592500", "114408.592500", "114410.592500", "114412.592500", "114414.592500", "114416.592500", "114418.592500", "114420.592500", "114422.592500", "114424.592500", "114426.592500", "114428.592500", "114430.592500", "114432.592500", "114434.592500", "114436.592500", "114438.592500", "114440.592500", "114442.592500", "114444.592500", "114446.592500", "114448.592500", "114450.592500", "114452.592500", "114454.592500", "114456.592500", "114458.592500", "114500.592500", "114502.592500", "114504.592500", "114506.592500", "114508.592500", "114510.592500", "114512.592500", "114514.592500", "114516.592500", "114518.592500", "114520.592500", "114522.592500", "114524.592500", "114526.592500", "114528.592500", "114530.592500", "114532.592500", "114534.592500", "114536.592500", "114538.592500", "114540.592500", "114542.592500", "114544.592500", "114546.592500", "114548.592500", "114550.592500", "114552.592500", "114554.592500", "114556.592500", "114558.592500", "114600.592500", "114602.592500", "114604.592500", "114606.592500", "114608.592500", "114610.592500", "114612.592500", "114614.592500", "114616.592500", "114618.592500", "114620.592500", "114622.592500", "114624.592500", "114626.592500", "114628.592500", "114630.592500", "114632.592500", "114634.592500", "114636.592500", "114638.592500", "114640.592500", "114642.592500", "114644.592500", "114646.592500", "114648.592500", "114650.592500", "114652.592500", "114654.592500", "114656.592500", "114658.592500", "114700.592500", "114702.592500", "114704.592500", "114706.592500", "114708.592500", "114710.592500", "114712.592500", "114714.592500", "114716.592500", "114718.592500", "114720.592500", "114722.592500", "114724.592500", "114726.592500", "114728.592500", "114730.592500", "114732.592500", "114734.592500", "114736.592500", "114738.592500", "114740.592500", "114742.592500", "114744.592500", "114746.592500", "114748.592500", "114750.592500", "114752.592500", "114754.595000", "114756.595000", "114758.595000", "114800.595000", "114802.595000", "114804.595000", "114806.595000", "114808.595000", "114810.595000", "114812.595000", "114814.595000", "114816.595000", "114818.595000", "114820.595000", "114822.595000"],
      "ContentTime": ["113656.948000", "113656.961000", "113656.963000", "113656.965000", "113656.967000", "113656.969000", "113656.971000", "113656.973000", "113656.975000", "113656.977000", "113656.979000", "113656.981000", "113656.983000", "113656.985000", "113656.987000", "113656.989000", "113656.991000", "113656.993000", "113656.995000", "113656.997000", "113736.943000", "113736.945000", "113736.947000", "113736.949000", "113736.951000", "113736.953000", "113736.955000", "113736.957000", "113736.959000", "113736.961000", "113736.963000", "113736.965000", "113736.967000", "113736.969000", "113736.971000", "113736.973000", "113736.975000", "113736.976000", "113736.978000", "113736.980000", "113816.944000", "113816.946000", "113816.960000", "113816.962000", "113816.964000", "113816.973000", "113816.975000", "113816.977000", "113816.979000", "113816.981000", "113816.983000", "113816.985000", "113816.987000", "113816.989000", "113816.990000", "113816.992000", "113816.994000", "113816.996000", "113816.998000", "113817.000000", "113856.943000", "113856.945000", "113856.947000", "113856.949000", "113856.951000", "113856.953000", "113856.955000", "113856.957000", "113856.959000", "113856.961000", "113856.963000", "113856.965000", "113856.967000", "113856.968000", "113856.970000", "113856.972000", "113856.974000", "113856.976000", "113856.978000", "113856.980000", "113936.943000", "113936.945000", "113936.947000", "113936.949000", "113936.951000", "113936.953000", "113936.955000", "113936.957000", "113936.964000", "113936.966000", "113936.968000", "113936.970000", "113936.972000", "113936.974000", "113936.976000", "113936.978000", "113936.980000", "113936.982000", "113936.984000", "113936.985000", "114016.943000", "114016.945000", "114016.947000", "114016.949000", "114016.951000", "114016.953000", "114016.955000", "114016.957000", "114016.959000", "114016.961000", "114016.963000", "114016.965000", "114016.967000", "114016.969000", "114016.971000", "114016.973000", "114016.975000", "114016.976000", "114016.978000", "114016.980000", "114056.943000", "114056.945000", "114056.947000", "114056.949000", "114056.951000", "114056.953000", "114056.955000", "114056.957000", "114056.959000", "114056.961000", "114056.963000", "114056.965000", "114056.967000", "114056.969000", "114056.971000", "114056.973000", "114056.975000", "114056.976000", "114056.978000", "114056.980000", "114136.943000", "114136.945000", "114136.947000", "114136.949000", "114136.951000", "114136.953000", "114136.955000", "114136.957000", "114136.959000", "114136.961000", "114136.963000", "114136.965000", "114136.967000", "114136.969000", "114136.971000", "114136.973000", "114136.975000", "114136.976000", "114136.978000", "114136.980000", "114216.943000", "114216.945000", "114216.947000", "114216.949000", "114216.951000", "114216.953000", "114216.955000", "114216.957000", "114216.959000", "114216.961000", "114216.963000", "114216.965000", "114216.967000", "114216.969000", "114216.971000", "114216.973000", "114216.975000", "114216.976000", "114216.978000", "114216.980000", "114256.944000", "114256.946000", "114256.948000", "114256.950000", "114256.952000", "114256.954000", "114256.956000", "114256.958000", "114256.960000", "114256.962000", "114256.964000", "114256.966000", "114256.968000", "114256.970000", "114256.972000", "114256.974000", "114256.976000", "114256.978000", "114256.980000", "114256.981000", "114336.943000", "114336.945000", "114336.947000", "114336.949000", "114336.951000", "114336.953000", "114336.955000", "114336.957000", "114336.959000", "114336.961000", "114336.963000", "114336.965000", "114336.967000", "114336.969000", "114336.971000", "114336.973000", "114336.975000", "114336.976000", "114336.978000", "114336.980000", "114416.943000", "114416.945000", "114416.947000", "114416.949000", "114416.951000", "114416.953000", "114416.955000", "114416.957000", "114416.959000", "114416.961000", "114416.963000", "114416.965000", "114416.967000", "114416.969000", "114416.971000", "114416.973000", "114416.975000", "114416.976000", "114416.978000", "114416.980000", "114456.943000", "114456.945000", "114456.947000", "114456.949000", "114456.951000", "114456.953000", "114456.955000", "114456.957000", "114456.959000", "114456.961000", "114456.963000", "114456.965000", "114456.967000", "114456.969000", "114456.971000", "114456.973000", "114456.975000", "114456.977000", "114456.979000", "114456.980000", "114536.943000", "114536.945000", "114536.947000", "114536.949000", "114536.951000", "114536.953000", "114536.955000", "114536.957000", "114536.967000", "114536.969000", "114536.971000", "114536.973000", "114536.975000", "114536.977000", "114536.979000", "114536.981000", "114536.983000", "114536.984000", "114536.986000", "114536.988000", "114616.943000", "114616.945000", "114616.947000", "114616.949000", "114616.951000", "114616.953000", "114616.955000", "114616.957000", "114616.959000", "114616.961000", "114616.963000", "114616.965000", "114616.967000", "114616.969000", "114616.971000", "114616.973000", "114616.975000", "114616.977000", "114616.979000", "114616.980000", "114656.943000", "114656.945000", "114656.947000", "114656.949000", "114656.951000", "114656.953000", "114656.955000", "114656.957000", "114656.959000", "114656.961000", "114656.963000", "114656.965000", "114656.967000", "114656.968000", "114656.970000", "114656.972000", "114656.974000", "114656.976000", "114656.978000", "114656.980000", "114736.943000", "114736.945000", "114736.947000", "114736.949000", "114736.951000", "114736.953000", "114736.955000", "114736.957000", "114736.959000", "114736.967000", "114736.969000", "114736.971000", "114736.973000", "114736.975000", "114736.977000", "114736.979000", "114736.981000", "114736.983000", "114736.984000", "114736.986000", "114816.959000", "114816.961000", "114816.963000", "114816.965000", "114816.967000", "114816.969000", "114816.971000", "114816.973000", "114816.975000", "114816.977000", "114816.979000", "114816.981000", "114816.982000", "114816.984000", "114816.986000", "114816.988000", "114816.990000", "114816.992000", "114816.994000", "114816.996000", "114824.030000", "114824.032000", "114824.034000", "114824.036000"],
      "InstanceCreationTime": ["113656.948000", "113656.961000", "113656.963000", "113656.965000", "113656.967000", "113656.969000", "113656.971000", "113656.973000", "113656.975000", "113656.977000", "113656.979000", "113656.981000", "113656.983000", "113656.985000", "113656.987000", "113656.989000", "113656.991000", "113656.993000", "113656.995000", "113656.997000", "113736.943000", "113736.945000", "113736.947000", "113736.949000", "113736.951000", "113736.953000", "113736.955000", "113736.957000", "113736.959000", "113736.961000", "113736.963000", "113736.965000", "113736.967000", "113736.969000", "113736.971000", "113736.973000", "113736.975000", "113736.976000", "113736.978000", "113736.980000", "113816.944000", "113816.946000", "113816.960000", "113816.962000", "113816.964000", "113816.973000", "113816.975000", "113816.977000", "113816.979000", "113816.981000", "113816.983000", "113816.985000", "113816.987000", "113816.989000", "113816.990000", "113816.992000", "113816.994000", "113816.996000", "113816.998000", "113817.000000", "113856.943000", "113856.945000", "113856.947000", "113856.949000", "113856.951000", "113856.953000", "113856.955000", "113856.957000", "113856.959000", "113856.961000", "113856.963000", "113856.965000", "113856.967000", "113856.968000", "113856.970000", "113856.972000", "113856.974000", "113856.976000", "113856.978000", "113856.980000", "113936.943000", "113936.945000", "113936.947000", "113936.949000", "113936.951000", "113936.953000", "113936.955000", "113936.957000", "113936.964000", "113936.966000", "113936.968000", "113936.970000", "113936.972000", "113936.974000", "113936.976000", "113936.978000", "113936.980000", "113936.982000", "113936.984000", "113936.985000", "114016.943000", "114016.945000", "114016.947000", "114016.949000", "114016.951000", "114016.953000", "114016.955000", "114016.957000", "114016.959000", "114016.961000", "114016.963000", "114016.965000", "114016.967000", "114016.969000", "114016.971000", "114016.973000", "114016.975000", "114016.976000", "114016.978000", "114016.980000", "114056.943000", "114056.945000", "114056.947000", "114056.949000", "114056.951000", "114056.953000", "114056.955000", "114056.957000", "114056.959000", "114056.961000", "114056.963000", "114056.965000", "114056.967000", "114056.969000", "114056.971000", "114056.973000", "114056.975000", "114056.976000", "114056.978000", "114056.980000", "114136.943000", "114136.945000", "114136.947000", "114136.949000", "114136.951000", "114136.953000", "114136.955000", "114136.957000", "114136.959000", "114136.961000", "114136.963000", "114136.965000", "114136.967000", "114136.969000", "114136.971000", "114136.973000", "114136.975000", "114136.976000", "114136.978000", "114136.980000", "114216.943000", "114216.945000", "114216.947000", "114216.949000", "114216.951000", "114216.953000", "114216.955000", "114216.957000", "114216.959000", "114216.961000", "114216.963000", "114216.965000", "114216.967000", "114216.969000", "114216.971000", "114216.973000", "114216.975000", "114216.976000", "114216.978000", "114216.980000", "114256.944000", "114256.946000", "114256.948000", "114256.950000", "114256.952000", "114256.954000", "114256.956000", "114256.958000", "114256.960000", "114256.962000", "114256.964000", "114256.966000", "114256.968000", "114256.970000", "114256.972000", "114256.974000", "114256.976000", "114256.978000", "114256.980000", "114256.981000", "114336.943000", "114336.945000", "114336.947000", "114336.949000", "114336.951000", "114336.953000", "114336.955000", "114336.957000", "114336.959000", "114336.961000", "114336.963000", "114336.965000", "114336.967000", "114336.969000", "114336.971000", "114336.973000", "114336.975000", "114336.976000", "114336.978000", "114336.980000", "114416.943000", "114416.945000", "114416.947000", "114416.949000", "114416.951000", "114416.953000", "114416.955000", "114416.957000", "114416.959000", "114416.961000", "114416.963000", "114416.965000", "114416.967000", "114416.969000", "114416.971000", "114416.973000", "114416.975000", "114416.976000", "114416.978000", "114416.980000", "114456.943000", "114456.945000", "114456.947000", "114456.949000", "114456.951000", "114456.953000", "114456.955000", "114456.957000", "114456.959000", "114456.961000", "114456.963000", "114456.965000", "114456.967000", "114456.969000", "114456.971000", "114456.973000", "114456.975000", "114456.977000", "114456.979000", "114456.980000", "114536.943000", "114536.945000", "114536.947000", "114536.949000", "114536.951000", "114536.953000", "114536.955000", "114536.957000", "114536.967000", "114536.969000", "114536.971000", "114536.973000", "114536.975000", "114536.977000", "114536.979000", "114536.981000", "114536.983000", "114536.984000", "114536.986000", "114536.988000", "114616.943000", "114616.945000", "114616.947000", "114616.949000", "114616.951000", "114616.953000", "114616.955000", "114616.957000", "114616.959000", "114616.961000", "114616.963000", "114616.965000", "114616.967000", "114616.969000", "114616.971000", "114616.973000", "114616.975000", "114616.977000", "114616.979000", "114616.980000", "114656.943000", "114656.945000", "114656.947000", "114656.949000", "114656.951000", "114656.953000", "114656.955000", "114656.957000", "114656.959000", "114656.961000", "114656.963000", "114656.965000", "114656.967000", "114656.968000", "114656.970000", "114656.972000", "114656.974000", "114656.976000", "114656.978000", "114656.980000", "114736.943000", "114736.945000", "114736.947000", "114736.949000", "114736.951000", "114736.953000", "114736.955000", "114736.957000", "114736.959000", "114736.967000", "114736.969000", "114736.971000", "114736.973000", "114736.975000", "114736.977000", "114736.979000", "114736.981000", "114736.983000", "114736.984000", "114736.986000", "114816.959000", "114816.961000", "114816.963000", "114816.965000", "114816.967000", "114816.969000", "114816.971000", "114816.973000", "114816.975000", "114816.977000", "114816.979000", "114816.981000", "114816.982000", "114816.984000", "114816.986000", "114816.988000", "114816.990000", "114816.992000", "114816.994000", "114816.996000", "114824.030000", "114824.032000", "114824.034000", "114824.036000"],
      "InstanceNumber": [1, 2, 3, 4, 5, 6, 7, 8, 9, 10, 11, 12, 13, 14, 15, 16, 17, 18, 19, 20, 21, 22, 23, 24, 25, 26, 27, 28, 29, 30, 31, 32, 33, 34, 35, 36, 37, 38, 39, 40, 41, 42, 43, 44, 45, 46, 47, 48, 49, 50, 51, 52, 53, 54, 55, 56, 57, 58, 59, 60, 61, 62, 63, 64, 65, 66, 67, 68, 69, 70, 71, 72, 73, 74, 75, 76, 77, 78, 79, 80, 81, 82, 83, 84, 85, 86, 87, 88, 89, 90, 91, 92, 93, 94, 95, 96, 97, 98, 99, 100, 101, 102, 103, 104, 105, 106, 107, 108, 109, 110, 111, 112, 113, 114, 115, 116, 117, 118, 119, 120, 121, 122, 123, 124, 125, 126, 127, 128, 129, 130, 131, 132, 133, 134, 135, 136, 137, 138, 139, 140, 141, 142, 143, 144, 145, 146, 147, 148, 149, 150, 151, 152, 153, 154, 155, 156, 157, 158, 159, 160, 161, 162, 163, 164, 165, 166, 167, 168, 169, 170, 171, 172, 173, 174, 175, 176, 177, 178, 179, 180, 181, 182, 183, 184, 185, 186, 187, 188, 189, 190, 191, 192, 193, 194, 195, 196, 197, 198, 199, 200, 201, 202, 203, 204, 205, 206, 207, 208, 209, 210, 211, 212, 213, 214, 215, 216, 217, 218, 219, 220, 221, 222, 223, 224, 225, 226, 227, 228, 229, 230, 231, 232, 233, 234, 235, 236, 237, 238, 239, 240, 241, 242, 243, 244, 245, 246, 247, 248, 249, 250, 251, 252, 253, 254, 255, 256, 257, 258, 259, 260, 261, 262, 263, 264, 265, 266, 267, 268, 269, 270, 271, 272, 273, 274, 275, 276, 277, 278, 279, 280, 281, 282, 283, 284, 285, 286, 287, 288, 289, 290, 291, 292, 293, 294, 295, 296, 297, 298, 299, 300, 301, 302, 303, 304, 305, 306, 307, 308, 309, 310, 311, 312, 313, 314, 315, 316, 317, 318, 319, 320, 321, 322, 323, 324, 325, 326, 327, 328, 329, 330, 331, 332, 333, 334, 335, 336, 337, 338, 339, 340, 341, 342, 343, 344, 345, 346, 347, 348, 349, 350, 351, 352, 353, 354, 355, 356, 357, 358, 359, 360, 361, 362, 363, 364],
      "LargestImagePixelValue": [3398, 3121, 3047, 3072, 3064, 3042, 3049, 3013, 3007, 3014, 3017, 3009, 3022, 2989, 3002, 2966, 2972, 2983, 2971, 2981, 3004, 2973, 2971, 2978, 2966, 2976, 2995, 2971, 2959, 2974, 2948, 2947, 2984, 2954, 2994, 2986, 2993, 2992, 2988, 2986, 2970, 2959, 3002, 2999, 2992, 2970, 2963, 2975, 2944, 2945, 2952, 2945, 2951, 2971, 2971, 2975, 2991, 2990, 2962, 2967, 3081, 3025, 2982, 2941, 2938, 2940, 2932, 2964, 2937, 2906, 2918, 2927, 2923, 2917, 2911, 2937, 2925, 2929, 2919, 2916, 2890, 2912, 2894, 2872, 2887, 2873, 2891, 2909, 2887, 2882, 2875, 2870, 2889, 2888, 2894, 2878, 2904, 2920, 2908, 2915, 2907, 2885, 2893, 2889, 2894, 2879, 2898, 2894, 2895, 2892, 2902, 2894, 2914, 2905, 2892, 2893, 2865, 2864, 2865, 2873, 2876, 2945, 2879, 2827, 2852, 2868, 2853, 2924, 2928, 2876, 2919, 2892, 2891, 2925, 2895, 2902, 2902, 2887, 2898, 2893, 2901, 2909, 2918, 2899, 2890, 2890, 2906, 2893, 2884, 2884, 3021, 2959, 3016, 2986, 2874, 2874, 2890, 2933, 2930, 2927, 2938, 2945, 2928, 2902, 2952, 2957, 2907, 2906, 2896, 2920, 2939, 2962, 2914, 2904, 2952, 2910, 2937, 2967, 2926, 2912, 2992, 2948, 2955, 2895, 2882, 2863, 2865, 2891, 2883, 2892, 2898, 2893, 2872, 2884, 2897, 2896, 2895, 2896, 2897, 2893, 2875, 2872, 2888, 2898, 2890, 2877, 2878, 2875, 2896, 2889, 2918, 3149, 2792, 2880, 2918, 2839, 2868, 2837, 2828, 2854, 2846, 2853, 2845, 2855, 2860, 2863, 2864, 2860, 2858, 2864, 2862, 2867, 2877, 2876, 2898, 2898, 2882, 2871, 2862, 2848, 2856, 2868, 2858, 2851, 2818, 2821, 2817, 2814, 2805, 2794, 2813, 2822, 2822, 2823, 2826, 2832, 2836, 2848, 2851, 2854, 2863, 2867, 2854, 2865, 2878, 2876, 2877, 2981, 2922, 2938, 2960, 2926, 2945, 2992, 2994, 3000, 3026, 3035, 3043, 3057, 3051, 3025, 3030, 3035, 3058, 3017, 3018, 3013, 2999, 2972, 2987, 2988, 2979, 2991, 2976, 3002, 2996, 2968, 3028, 3023, 2947, 2958, 2949, 2910, 2903, 2965, 2935, 2922, 2919, 2887, 2905, 2906, 2897, 2900, 2888, 2883, 2892, 2887, 2888, 2855, 2869, 2884, 2887, 2875, 2864, 2864, 2865, 2848, 2845, 2851, 2857, 2881, 2871, 2873, 2913, 2860, 2862, 2848, 2834, 2851, 2851, 2848, 2852, 2845, 2865, 2866, 2865, 2856, 2846, 2848, 2853, 2861, 2854, 2837, 2833, 2845, 2848, 2845, 2852, 2842, 2836, 2847, 2875, 2853],
