{
  "AcquisitionMatrixPE": 64,
  "AcquisitionNumber": 1,
  "AcquisitionTime": "12:28:38.430000",
  "BandwidthPerPixelPhaseEncode": 25.202,
  "BaseResolution": 64,
  "BodyPartExamined": "BRAIN",
  "ConsistencyInfo": "N4_VD13C_LATEST_20121124",
  "ConversionSoftware": "dcm2niix",
  "ConversionSoftwareVersion": "v1.0.20201102",
  "DerivedVendorReportedEchoSpacing": 0.00061999,
  "DeviceSerialNumber": "45758",
  "DwellTime": 4.3e-06,
  "EchoTime": 0.03,
  "EchoTrainLength": 64,
  "EffectiveEchoSpacing": 0.00061999,
  "FlipAngle": 90,
  "ImageOrientationPatientDICOM": [0.999856, -0.000517488, 0.0169612, 0.00174508, 0.997371, -0.072442],
  "ImageType": [
    "ORIGINAL",
    "PRIMARY",
    "M",
    "ND",
    "MOSAIC"
],
  "ImagingFrequency": 123.2,
  "InPlanePhaseEncodingDirectionDICOM": "ROW",
  "InstitutionAddress": "Street StreetNo,City /652E4B/,District,KR,ZIP",
  "InstitutionName": "DGMIF",
  "InstitutionalDepartmentName": "Department",
  "MRAcquisitionType": "2D",
  "MagneticFieldStrength": 3,
  "Manufacturer": "Siemens",
  "ManufacturersModelName": "Skyra",
  "Modality": "MR",
  "PartialFourier": 1,
  "PatientPosition": "HFS",
  "PercentPhaseFOV": 100,
  "PercentSampling": 100,
  "PhaseEncodingDirection": "i",
  "PhaseEncodingSteps": 64,
  "PhaseResolution": 1,
  "PixelBandwidth": 1815,
  "ProcedureStepDescription": "DGMIF^DGIST_Jeon",
  "ProtocolName": "EPI_DGIST_1",
  "PulseSequenceDetails": "%SiemensSeq%\\ep2d_bold",
  "ReceiveCoilActiveElements": "HC1-7",
  "ReceiveCoilName": "HeadNeck_64",
  "ReconMatrixPE": 64,
  "RepetitionTime": 2,
  "SAR": 0.130294,
  "ScanOptions": "FS",
  "ScanningSequence": "EP",
  "SequenceName": "*epfid2d1_64",
  "SequenceVariant": "SK",
  "SeriesDescription": "EPI_DGIST_1",
  "SeriesNumber": 2,
  "ShimSetting": [-9713, -13766, -8198, 205, -445, -466, 203, -142],
  "SliceThickness": 4,
  "SliceTiming": [0.99, 0, 1.055, 0.065, 1.1225, 0.1325, 1.1875, 0.1975, 1.2525, 0.2625, 1.32, 0.33, 1.385, 0.395, 1.4525, 0.4625, 1.5175, 0.5275, 1.5825, 0.5925, 1.65, 0.66, 1.715, 0.725, 1.7825, 0.7925, 1.8475, 0.8575, 1.9125, 0.9225],
  "SoftwareVersions": "syngo MR D13C",
  "SpacingBetweenSlices": 4.8,
  "StationName": "AWP45758",
  "TaskName": "asrt",
  "TotalReadoutTime": 0.0390594,
  "TxRefAmp": 325.437,
  "dcmmeta_affine": [
    [-2.999567985534668, 0.005235239397734404, 0.0810195654630661, 94.10961151123047],
    [0.0015524652553722262, 2.9921133518218994, -0.34781375527381897, -114.05382537841797],
    [0.0508834607899189, 0.2173261046409607, 4.786695957183838, -80.93731689453125],
    [0.0, 0.0, 0.0, 1.0]
],
  "dcmmeta_reorient_transform": [
    [0.0, -1.0, 0.0, 63.0],
    [1.0, 0.0, 0.0, 0.0],
    [0.0, 0.0, 1.0, 0.0],
    [0.0, 0.0, 0.0, 1.0]
],
  "dcmmeta_shape": [64, 64, 30, 514],
  "dcmmeta_slice_dim": 2,
  "dcmmeta_version": 0.6,
  "global": {
    "const": {
      "AcquisitionMatrix": [0, 64, 64, 0],
      "AngioFlag": "N",
      "BitsAllocated": 16,
      "BitsStored": 12,
      "BodyPartExamined": "BRAIN",
      "Columns": 384,
      "EchoNumbers": 1,
      "EchoTime": 30.0,
      "EchoTrainLength": 64,
      "FlipAngle": 90.0,
      "HighBit": 11,
      "ImageOrientationPatient": [0.99985601536128, -0.0005174884004, 0.01696115419495, 0.00174507975776, 0.99737109759547, -0.072442034606],
      "ImagePositionPatient": [-575.20795745502, -552.93904265061, -40.614950444293],
      "ImageType": [
        "ORIGINAL",
        "PRIMARY",
        "M",
        "ND",
        "MOSAIC"
],
      "ImagedNucleus": "1H",
      "ImagingFrequency": 123.200195,
      "InPlanePhaseEncodingDirection": "ROW",
      "MRAcquisitionType": "2D",
      "MagneticFieldStrength": 3.0,
      "Manufacturer": "SIEMENS",
      "ManufacturerModelName": "Skyra",
      "Modality": "MR",
      "NumberOfAverages": 1.0,
      "NumberOfPhaseEncodingSteps": 64,
      "PercentPhaseFieldOfView": 100.0,
      "PercentSampling": 100.0,
      "PerformedProcedureStepStartTime": "121811.453000",
      "PhotometricInterpretation": "MONOCHROME2",
      "PixelBandwidth": 1815.0,
      "PixelRepresentation": 0,
      "PixelSpacing": [3.0, 3.0],
      "ProtocolName": "EPI_DGIST_1",
      "RepetitionTime": 2000.0,
      "Rows": 384,
      "SAR": 0.13029357678813,
      "SamplesPerPixel": 1,
      "ScanOptions": "FS",
      "ScanningSequence": "EP",
      "SequenceName": "*epfid2d1_64",
      "SequenceVariant": "SK",
      "SeriesDescription": "EPI_DGIST_1",
      "SeriesNumber": 2,
      "SeriesTime": "122935.746000",
      "SliceLocation": -70.860030397455,
      "SliceThickness": 4.0,
      "SmallestImagePixelValue": 0,
      "SoftwareVersions": "syngo MR D13C",
      "SpacingBetweenSlices": 4.7999997789121,
      "SpecificCharacterSet": "ISO_IR 100",
      "StudyID": "1",
      "StudyTime": "121811.377000",
      "TimeOfLastCalibration": ["123723.000000", "123723.000000"],
      "TransmitCoilName": "Body",
      "VariableFlipAngleFlag": "N",
      "WindowCenterWidthExplanation": "Algo1",
      "dBdt": 0.0},
    "slices": {}
  },
  "time": {
    "samples": {
      "AcquisitionNumber": [1, 2, 3, 4, 5, 6, 7, 8, 9, 10, 11, 12, 13, 14, 15, 16, 17, 18, 19, 20, 21, 22, 23, 24, 25, 26, 27, 28, 29, 30, 31, 32, 33, 34, 35, 36, 37, 38, 39, 40, 41, 42, 43, 44, 45, 46, 47, 48, 49, 50, 51, 52, 53, 54, 55, 56, 57, 58, 59, 60, 61, 62, 63, 64, 65, 66, 67, 68, 69, 70, 71, 72, 73, 74, 75, 76, 77, 78, 79, 80, 81, 82, 83, 84, 85, 86, 87, 88, 89, 90, 91, 92, 93, 94, 95, 96, 97, 98, 99, 100, 101, 102, 103, 104, 105, 106, 107, 108, 109, 110, 111, 112, 113, 114, 115, 116, 117, 118, 119, 120, 121, 122, 123, 124, 125, 126, 127, 128, 129, 130, 131, 132, 133, 134, 135, 136, 137, 138, 139, 140, 141, 142, 143, 144, 145, 146, 147, 148, 149, 150, 151, 152, 153, 154, 155, 156, 157, 158, 159, 160, 161, 162, 163, 164, 165, 166, 167, 168, 169, 170, 171, 172, 173, 174, 175, 176, 177, 178, 179, 180, 181, 182, 183, 184, 185, 186, 187, 188, 189, 190, 191, 192, 193, 194, 195, 196, 197, 198, 199, 200, 201, 202, 203, 204, 205, 206, 207, 208, 209, 210, 211, 212, 213, 214, 215, 216, 217, 218, 219, 220, 221, 222, 223, 224, 225, 226, 227, 228, 229, 230, 231, 232, 233, 234, 235, 236, 237, 238, 239, 240, 241, 242, 243, 244, 245, 246, 247, 248, 249, 250, 251, 252, 253, 254, 255, 256, 257, 258, 259, 260, 261, 262, 263, 264, 265, 266, 267, 268, 269, 270, 271, 272, 273, 274, 275, 276, 277, 278, 279, 280, 281, 282, 283, 284, 285, 286, 287, 288, 289, 290, 291, 292, 293, 294, 295, 296, 297, 298, 299, 300, 301, 302, 303, 304, 305, 306, 307, 308, 309, 310, 311, 312, 313, 314, 315, 316, 317, 318, 319, 320, 321, 322, 323, 324, 325, 326, 327, 328, 329, 330, 331, 332, 333, 334, 335, 336, 337, 338, 339, 340, 341, 342, 343, 344, 345, 346, 347, 348, 349, 350, 351, 352, 353, 354, 355, 356, 357, 358, 359, 360, 361, 362, 363, 364, 365, 366, 367, 368, 369, 370, 371, 372, 373, 374, 375, 376, 377, 378, 379, 380, 381, 382, 383, 384, 385, 386, 387, 388, 389, 390, 391, 392, 393, 394, 395, 396, 397, 398, 399, 400, 401, 402, 403, 404, 405, 406, 407, 408, 409, 410, 411, 412, 413, 414, 415, 416, 417, 418, 419, 420, 421, 422, 423, 424, 425, 426, 427, 428, 429, 430, 431, 432, 433, 434, 435, 436, 437, 438, 439, 440, 441, 442, 443, 444, 445, 446, 447, 448, 449, 450, 451, 452, 453, 454, 455, 456, 457, 458, 459, 460, 461, 462, 463, 464, 465, 466, 467, 468, 469, 470, 471, 472, 473, 474, 475, 476, 477, 478, 479, 480, 481, 482, 483, 484, 485, 486, 487, 488, 489, 490, 491, 492, 493, 494, 495, 496, 497, 498, 499, 500, 501, 502, 503, 504, 505, 506, 507, 508, 509, 510, 511, 512, 513, 514],
      "AcquisitionTime": ["122838.430000", "122840.430000", "122842.430000", "122844.430000", "122846.430000", "122848.430000", "122850.430000", "122852.430000", "122854.430000", "122856.430000", "122858.430000", "122900.430000", "122902.430000", "122904.430000", "122906.430000", "122908.430000", "122910.430000", "122912.430000", "122914.430000", "122916.430000", "122918.430000", "122920.430000", "122922.430000", "122924.430000", "122926.430000", "122928.430000", "122930.430000", "122932.430000", "122934.430000", "122936.430000", "122938.430000", "122940.430000", "122942.430000", "122944.430000", "122946.430000", "122948.430000", "122950.430000", "122952.430000", "122954.430000", "122956.430000", "122958.430000", "123000.430000", "123002.430000", "123004.430000", "123006.430000", "123008.430000", "123010.430000", "123012.430000", "123014.430000", "123016.430000", "123018.430000", "123020.430000", "123022.430000", "123024.430000", "123026.430000", "123028.430000", "123030.430000", "123032.430000", "123034.430000", "123036.430000", "123038.430000", "123040.430000", "123042.430000", "123044.430000", "123046.430000", "123048.430000", "123050.430000", "123052.430000", "123054.430000", "123056.430000", "123058.430000", "123100.430000", "123102.430000", "123104.430000", "123106.430000", "123108.430000", "123110.430000", "123112.430000", "123114.430000", "123116.430000", "123118.430000", "123120.430000", "123122.430000", "123124.430000", "123126.430000", "123128.430000", "123130.430000", "123132.430000", "123134.430000", "123136.430000", "123138.430000", "123140.430000", "123142.430000", "123144.430000", "123146.430000", "123148.430000", "123150.430000", "123152.430000", "123154.430000", "123156.430000", "123158.430000", "123200.430000", "123202.430000", "123204.430000", "123206.430000", "123208.430000", "123210.430000", "123212.430000", "123214.430000", "123216.430000", "123218.430000", "123220.430000", "123222.430000", "123224.430000", "123226.430000", "123228.430000", "123230.430000", "123232.430000", "123234.430000", "123236.430000", "123238.430000", "123240.430000", "123242.430000", "123244.430000", "123246.430000", "123248.430000", "123250.430000", "123252.430000", "123254.430000", "123256.430000", "123258.430000", "123300.430000", "123302.430000", "123304.430000", "123306.430000", "123308.430000", "123310.430000", "123312.430000", "123314.430000", "123316.430000", "123318.430000", "123320.430000", "123322.430000", "123324.430000", "123326.430000", "123328.430000", "123330.430000", "123332.430000", "123334.430000", "123336.430000", "123338.430000", "123340.430000", "123342.430000", "123344.430000", "123346.430000", "123348.430000", "123350.430000", "123352.430000", "123354.430000", "123356.430000", "123358.430000", "123400.430000", "123402.430000", "123404.430000", "123406.430000", "123408.430000", "123410.430000", "123412.430000", "123414.430000", "123416.432500", "123418.432500", "123420.432500", "123422.432500", "123424.432500", "123426.432500", "123428.432500", "123430.432500", "123432.432500", "123434.432500", "123436.432500", "123438.432500", "123440.432500", "123442.432500", "123444.432500", "123446.432500", "123448.432500", "123450.432500", "123452.432500", "123454.432500", "123456.432500", "123458.432500", "123500.432500", "123502.432500", "123504.432500", "123506.432500", "123508.432500", "123510.432500", "123512.432500", "123514.432500", "123516.432500", "123518.432500", "123520.432500", "123522.432500", "123524.432500", "123526.432500", "123528.432500", "123530.432500", "123532.432500", "123534.432500", "123536.432500", "123538.432500", "123540.432500", "123542.432500", "123544.432500", "123546.432500", "123548.432500", "123550.432500", "123552.432500", "123554.432500", "123556.432500", "123558.432500", "123600.432500", "123602.432500", "123604.432500", "123606.432500", "123608.432500", "123610.432500", "123612.432500", "123614.432500", "123616.432500", "123618.432500", "123620.432500", "123622.432500", "123624.432500", "123626.432500", "123628.432500", "123630.432500", "123632.432500", "123634.432500", "123636.432500", "123638.432500", "123640.432500", "123642.432500", "123644.432500", "123646.432500", "123648.432500", "123650.432500", "123652.432500", "123654.432500", "123656.432500", "123658.432500", "123700.432500", "123702.432500", "123704.432500", "123706.432500", "123708.432500", "123710.432500", "123712.432500", "123714.432500", "123716.432500", "123718.432500", "123720.432500", "123722.432500", "123724.432500", "123726.432500", "123728.432500", "123730.432500", "123732.432500", "123734.432500", "123736.432500", "123738.432500", "123740.432500", "123742.432500", "123744.432500", "123746.432500", "123748.432500", "123750.432500", "123752.432500", "123754.432500", "123756.432500", "123758.432500", "123800.432500", "123802.432500", "123804.432500", "123806.432500", "123808.432500", "123810.432500", "123812.432500", "123814.432500", "123816.432500", "123818.432500", "123820.432500", "123822.432500", "123824.432500", "123826.432500", "123828.432500", "123830.432500", "123832.432500", "123834.432500", "123836.432500", "123838.432500", "123840.432500", "123842.432500", "123844.432500", "123846.432500", "123848.432500", "123850.432500", "123852.432500", "123854.432500", "123856.432500", "123858.432500", "123900.432500", "123902.432500", "123904.432500", "123906.432500", "123908.432500", "123910.432500", "123912.432500", "123914.432500", "123916.432500", "123918.432500", "123920.432500", "123922.432500", "123924.432500", "123926.432500", "123928.432500", "123930.432500", "123932.432500", "123934.432500", "123936.432500", "123938.432500", "123940.432500", "123942.432500", "123944.432500", "123946.432500", "123948.432500", "123950.432500", "123952.432500", "123954.432500", "123956.432500", "123958.432500", "124000.432500", "124002.432500", "124004.432500", "124006.432500", "124008.432500", "124010.432500", "124012.432500", "124014.432500", "124016.432500", "124018.432500", "124020.432500", "124022.432500", "124024.432500", "124026.432500", "124028.432500", "124030.432500", "124032.432500", "124034.432500", "124036.432500", "124038.432500", "124040.432500", "124042.432500", "124044.432500", "124046.432500", "124048.432500", "124050.432500", "124052.432500", "124054.432500", "124056.432500", "124058.432500", "124100.432500", "124102.432500", "124104.432500", "124106.432500", "124108.432500", "124110.432500", "124112.432500", "124114.432500", "124116.432500", "124118.432500", "124120.432500", "124122.432500", "124124.432500", "124126.432500", "124128.432500", "124130.432500", "124132.432500", "124134.432500", "124136.432500", "124138.432500", "124140.432500", "124142.432500", "124144.432500", "124146.432500", "124148.432500", "124150.432500", "124152.432500", "124154.432500", "124156.432500", "124158.432500", "124200.432500", "124202.432500", "124204.432500", "124206.432500", "124208.432500", "124210.432500", "124212.432500", "124214.432500", "124216.432500", "124218.432500", "124220.432500", "124222.432500", "124224.432500", "124226.432500", "124228.432500", "124230.432500", "124232.432500", "124234.432500", "124236.435000", "124238.435000", "124240.435000", "124242.435000", "124244.435000", "124246.435000", "124248.435000", "124250.435000", "124252.435000", "124254.435000", "124256.435000", "124258.435000", "124300.435000", "124302.435000", "124304.435000", "124306.435000", "124308.435000", "124310.435000", "124312.435000", "124314.435000", "124316.435000", "124318.435000", "124320.435000", "124322.435000", "124324.435000", "124326.435000", "124328.435000", "124330.435000", "124332.435000", "124334.435000", "124336.435000", "124338.435000", "124340.435000", "124342.435000", "124344.435000", "124346.435000", "124348.435000", "124350.435000", "124352.435000", "124354.435000", "124356.435000", "124358.435000", "124400.435000", "124402.435000", "124404.435000", "124406.435000", "124408.435000", "124410.435000", "124412.435000", "124414.435000", "124416.435000", "124418.435000", "124420.435000", "124422.435000", "124424.435000", "124426.435000", "124428.435000", "124430.435000", "124432.435000", "124434.435000", "124436.435000", "124438.435000", "124440.435000", "124442.435000", "124444.435000", "124446.435000", "124448.435000", "124450.435000", "124452.435000", "124454.435000", "124456.435000", "124458.435000", "124500.435000", "124502.435000", "124504.435000", "124506.435000", "124508.435000", "124510.435000", "124512.435000", "124514.435000", "124516.435000", "124518.435000", "124520.435000", "124522.435000", "124524.435000", "124526.435000", "124528.435000", "124530.435000", "124532.435000", "124534.435000", "124536.435000", "124538.435000", "124540.435000", "124542.435000", "124544.435000"],
      "ContentTime": ["122935.749000", "122935.751000", "122935.753000", "122935.755000", "122935.758000", "122935.760000", "122935.761000", "122935.763000", "122935.765000", "122935.767000", "122935.769000", "122935.771000", "122935.773000", "122935.775000", "122935.777000", "122935.779000", "122935.781000", "122935.783000", "122935.785000", "122935.787000", "122935.803000", "122935.805000", "122935.806000", "122935.808000", "122935.811000", "122935.821000", "122935.823000", "122935.827000", "122955.744000", "122955.746000", "122955.748000", "122955.751000", "122955.752000", "122955.754000", "122955.756000", "122955.758000", "122955.760000", "122955.762000", "123035.745000", "123035.748000", "123035.750000", "123035.752000", "123035.753000", "123035.756000", "123035.757000", "123035.759000", "123035.761000", "123035.763000", "123035.765000", "123035.767000", "123035.769000", "123035.771000", "123035.773000", "123035.775000", "123035.777000", "123035.779000", "123035.781000", "123035.783000", "123115.745000", "123115.747000", "123115.749000", "123115.751000", "123115.753000", "123115.756000", "123115.757000", "123115.759000", "123115.761000", "123115.763000", "123115.765000", "123115.767000", "123115.769000", "123115.771000", "123115.773000", "123115.775000", "123115.777000", "123115.779000", "123115.781000", "123115.783000", "123155.744000", "123155.747000", "123155.748000", "123155.750000", "123155.752000", "123155.754000", "123155.756000", "123155.758000", "123155.760000", "123155.762000", "123155.764000", "123155.766000", "123155.768000", "123155.770000", "123155.772000", "123155.774000", "123155.776000", "123155.778000", "123155.780000", "123155.782000", "123235.744000", "123235.747000", "123235.749000", "123235.750000", "123235.752000", "123235.754000", "123235.756000", "123235.758000", "123235.760000", "123235.762000", "123235.764000", "123235.766000", "123235.768000", "123235.770000", "123235.772000", "123235.774000", "123235.776000", "123235.778000", "123235.780000", "123235.782000", "123315.745000", "123315.747000", "123315.749000", "123315.751000", "123315.753000", "123315.755000", "123315.757000", "123315.759000", "123315.761000", "123315.764000", "123315.766000", "123315.767000", "123315.769000", "123315.772000", "123315.773000", "123315.775000", "123315.777000", "123315.779000", "123315.781000", "123315.783000", "123355.744000", "123355.747000", "123355.749000", "123355.750000", "123355.752000", "123355.754000", "123355.756000", "123355.758000", "123355.760000", "123355.762000", "123355.764000", "123355.766000", "123355.768000", "123355.770000", "123355.772000", "123355.774000", "123355.776000", "123355.778000", "123355.780000", "123355.782000", "123435.744000", "123435.747000", "123435.749000", "123435.751000", "123435.753000", "123435.755000", "123435.756000", "123435.758000", "123435.760000", "123435.762000", "123435.764000", "123435.766000", "123435.768000", "123435.770000", "123435.772000", "123435.774000", "123435.783000", "123435.785000", "123435.787000", "123435.789000", "123515.745000", "123515.753000", "123515.755000", "123515.757000", "123515.759000", "123515.761000", "123515.763000", "123515.765000", "123515.767000", "123515.769000", "123515.771000", "123515.773000", "123515.775000", "123515.777000", "123515.779000", "123515.781000", "123515.783000", "123515.874000", "123515.876000", "123515.878000", "123555.745000", "123555.747000", "123555.749000", "123555.751000", "123555.753000", "123555.755000", "123555.757000", "123555.759000", "123555.761000", "123555.763000", "123555.765000", "123555.767000", "123555.769000", "123555.771000", "123555.773000", "123555.775000", "123555.777000", "123555.779000", "123555.781000", "123555.783000", "123635.744000", "123635.747000", "123635.749000", "123635.751000", "123635.752000", "123635.754000", "123635.756000", "123635.758000", "123635.760000", "123635.762000", "123635.764000", "123635.766000", "123635.768000", "123635.770000", "123635.772000", "123635.774000", "123635.776000", "123635.779000", "123635.780000", "123635.782000", "123715.744000", "123715.747000", "123715.749000", "123715.750000", "123715.752000", "123715.754000", "123715.756000", "123715.758000", "123715.760000", "123715.762000", "123715.764000", "123715.766000", "123715.768000", "123715.770000", "123715.772000", "123715.774000", "123715.776000", "123715.778000", "123715.780000", "123715.782000", "123755.745000", "123755.748000", "123755.750000", "123755.752000", "123755.753000", "123755.756000", "123755.757000", "123755.759000", "123755.761000", "123755.763000", "123755.765000", "123755.767000", "123755.769000", "123755.771000", "123755.773000", "123755.775000", "123755.777000", "123755.779000", "123755.781000", "123755.783000", "123835.744000", "123835.746000", "123835.748000", "123835.750000", "123835.752000", "123835.754000", "123835.756000", "123835.758000", "123835.760000", "123835.762000", "123835.764000", "123835.766000", "123835.768000", "123835.770000", "123835.772000", "123835.774000", "123835.776000", "123835.778000", "123835.780000", "123835.782000", "123915.744000", "123915.747000", "123915.749000", "123915.751000", "123915.753000", "123915.755000", "123915.757000", "123915.759000", "123915.760000", "123915.763000", "123915.764000", "123915.766000", "123915.768000", "123915.770000", "123915.772000", "123915.774000", "123915.776000", "123915.778000", "123915.780000", "123915.782000", "123955.745000", "123955.748000", "123955.750000", "123955.752000", "123955.754000", "123955.756000", "123955.764000", "123955.766000", "123955.768000", "123955.770000", "123955.772000", "123955.774000", "123955.776000", "123955.778000", "123955.780000", "123955.782000", "123955.784000", "123955.787000", "123955.789000", "123955.791000", "124035.745000", "124035.748000", "124035.750000", "124035.752000", "124035.753000", "124035.756000", "124035.757000", "124035.759000", "124035.761000", "124035.763000", "124035.765000", "124035.767000", "124035.769000", "124035.771000", "124035.773000", "124035.775000", "124035.777000", "124035.779000", "124035.781000", "124035.783000", "124115.744000", "124115.747000", "124115.748000", "124115.750000", "124115.752000", "124115.755000", "124115.756000", "124115.758000", "124115.760000", "124115.763000", "124115.764000", "124115.766000", "124115.768000", "124115.770000", "124115.772000", "124115.774000", "124115.776000", "124115.778000", "124115.780000", "124115.782000", "124155.744000", "124155.747000", "124155.749000", "124155.751000", "124155.753000", "124155.755000", "124155.757000", "124155.759000", "124155.761000", "124155.763000", "124155.765000", "124155.767000", "124155.769000", "124155.771000", "124155.772000", "124155.774000", "124155.776000", "124155.778000", "124155.780000", "124155.782000", "124235.745000", "124235.748000", "124235.750000", "124235.751000", "124235.753000", "124235.755000", "124235.757000", "124235.759000", "124235.761000", "124235.771000", "124235.773000", "124235.775000", "124235.777000", "124235.780000", "124235.782000", "124235.784000", "124235.786000", "124235.788000", "124235.790000", "124235.792000", "124315.744000", "124315.747000", "124315.749000", "124315.751000", "124315.753000", "124315.755000", "124315.756000", "124315.758000", "124315.760000", "124315.763000", "124315.765000", "124315.766000", "124315.768000", "124315.770000", "124315.772000", "124315.774000", "124315.776000", "124315.779000", "124315.781000", "124315.783000", "124355.744000", "124355.746000", "124355.748000", "124355.750000", "124355.752000", "124355.754000", "124355.756000", "124355.758000", "124355.760000", "124355.762000", "124355.764000", "124355.766000", "124355.768000", "124355.770000", "124355.772000", "124355.774000", "124355.776000", "124355.778000", "124355.780000", "124355.782000", "124435.745000", "124435.748000", "124435.750000", "124435.752000", "124435.753000", "124435.755000", "124435.757000", "124435.759000", "124435.761000", "124435.763000", "124435.765000", "124435.767000", "124435.769000", "124435.772000", "124435.773000", "124435.775000", "124435.777000", "124435.779000", "124435.781000", "124435.783000", "124515.745000", "124515.748000", "124515.750000", "124515.752000", "124515.754000", "124515.756000", "124515.758000", "124515.760000", "124515.762000", "124515.764000", "124515.766000", "124515.781000", "124515.783000", "124515.785000", "124515.787000", "124515.789000", "124515.791000", "124515.797000", "124515.799000", "124515.801000", "124546.463000", "124546.465000", "124546.467000", "124546.469000", "124546.471000", "124546.474000", "124546.476000", "124546.478000", "124546.480000", "124546.482000", "124546.484000", "124546.486000", "124546.488000", "124546.490000", "124546.492000", "124546.494000"],
