{
  "AcquisitionMatrixPE": 64,
  "AcquisitionNumber": 1,
  "AcquisitionTime": "13:12:7.520000",
  "BandwidthPerPixelPhaseEncode": 25.202,
  "BaseResolution": 64,
  "BodyPartExamined": "BRAIN",
  "ConsistencyInfo": "N4_VE11C_LATEST_20160120",
  "ConversionSoftware": "dcm2niix",
  "ConversionSoftwareVersion": "v1.0.20201102",
  "DerivedVendorReportedEchoSpacing": 0.00061999,
  "DeviceSerialNumber": "45758",
  "DwellTime": 4.3e-06,
  "EchoTime": 0.03,
  "EchoTrainLength": 64,
  "EffectiveEchoSpacing": 0.00061999,
  "FlipAngle": 90,
  "ImageOrientationPatientDICOM": [0.999847, -0.0106017, 0.0139245, 0.0104708, 0.999901, 0.00944156],
  "ImageType": [
    "ORIGINAL",
    "PRIMARY",
    "M",
    "ND",
    "MOSAIC"
],
  "ImagingFrequency": 123.2,
  "InPlanePhaseEncodingDirectionDICOM": "ROW",
  "InstitutionAddress": "Street StreetNo,City /652E4B/,District,KR,ZIP",
  "InstitutionName": "DGMIF",
  "InstitutionalDepartmentName": "Department",
  "MRAcquisitionType": "2D",
  "MagneticFieldStrength": 3,
  "Manufacturer": "Siemens",
  "ManufacturersModelName": "Skyra",
  "Modality": "MR",
  "PartialFourier": 1,
  "PatientPosition": "HFS",
  "PercentPhaseFOV": 100,
  "PercentSampling": 100,
  "PhaseEncodingDirection": "i",
  "PhaseEncodingSteps": 64,
  "PhaseResolution": 1,
  "PixelBandwidth": 1815,
  "ProcedureStepDescription": "DGMIF^DGIST",
  "ProtocolName": "EPI_DGIST_2",
  "PulseSequenceDetails": "%SiemensSeq%\\ep2d_bold",
  "ReceiveCoilActiveElements": "HC1-7",
  "ReceiveCoilName": "HeadNeck_64",
  "ReconMatrixPE": 64,
  "RepetitionTime": 2,
  "SAR": 0.139064,
  "ScanOptions": "FS",
  "ScanningSequence": "EP",
  "SequenceName": "*epfid2d1_64",
  "SequenceVariant": "SK",
  "SeriesDescription": "EPI_DGIST_2",
  "SeriesNumber": 3,
  "ShimSetting": [-9732, -13624, -8209, 149, -480, -819, -178, -118],
  "SliceThickness": 4,
  "SliceTiming": [0.99, 0, 1.055, 0.065, 1.1225, 0.1325, 1.1875, 0.1975, 1.255, 0.265, 1.32, 0.33, 1.385, 0.395, 1.4525, 0.4625, 1.5175, 0.5275, 1.585, 0.595, 1.65, 0.66, 1.715, 0.725, 1.7825, 0.7925, 1.8475, 0.8575, 1.915, 0.925],
  "SoftwareVersions": "syngo MR E11",
  "SpacingBetweenSlices": 4.8,
  "StationName": "AWP45758",
  "TaskName": "asrt",
  "TotalReadoutTime": 0.0390594,
  "TxRefAmp": 340.654,
  "dcmmeta_affine": [
    [-2.9995405673980713, 0.031412262469530106, 0.06731146574020386, 93.32933044433594],
    [0.031805019825696945, 2.999701738357544, 0.04461270943284035, -122.28289031982422],
    [0.04177352786064148, -0.028324682265520096, 4.799320697784424, -84.0429916381836],
    [0.0, 0.0, 0.0, 1.0]
],
  "dcmmeta_reorient_transform": [
    [0.0, -1.0, 0.0, 63.0],
    [1.0, 0.0, 0.0, 0.0],
    [0.0, 0.0, 1.0, 0.0],
    [0.0, 0.0, 0.0, 1.0]
],
  "dcmmeta_shape": [64, 64, 30, 364],
  "dcmmeta_slice_dim": 2,
  "dcmmeta_version": 0.6,
  "global": {
    "const": {
      "AcquisitionMatrix": [0, 64, 64, 0],
      "AngioFlag": "N",
      "BitsAllocated": 16,
      "BitsStored": 12,
      "BodyPartExamined": "BRAIN",
      "Columns": 384,
      "EchoNumbers": 1,
      "EchoTime": 30.0,
      "EchoTrainLength": 64,
      "FlipAngle": 90.0,
      "HighBit": 11,
      "ImageOrientationPatient": [0.99984684454495, -0.0106016733446, 0.01392450989475, 0.01047075414399, 0.99990060518204, 0.00944156047741],
      "ImagePositionPatient": [-580.26075357914, -541.56181263756, -97.043161343936],
      "ImageType": [
        "ORIGINAL",
        "PRIMARY",
        "M",
        "ND",
        "MOSAIC"
],
      "ImagedNucleus": "1H",
      "ImagingFrequency": 123.200188,
      "InPlanePhaseEncodingDirection": "ROW",
      "MRAcquisitionType": "2D",
      "MagneticFieldStrength": 3.0,
      "Manufacturer": "SIEMENS",
      "ManufacturerModelName": "Skyra",
      "Modality": "MR",
      "NumberOfAverages": 1.0,
      "NumberOfPhaseEncodingSteps": 64,
      "PercentPhaseFieldOfView": 100.0,
      "PercentSampling": 100.0,
      "PerformedProcedureStepStartTime": "124845.495000",
      "PhotometricInterpretation": "MONOCHROME2",
      "PixelBandwidth": 1815.0,
      "PixelRepresentation": 0,
      "PixelSpacing": [3.0, 3.0],
      "ProtocolName": "EPI_DGIST_2",
      "RepetitionTime": 2000.0,
      "Rows": 384,
      "SAR": 0.13906418985657,
      "SamplesPerPixel": 1,
      "ScanOptions": "FS",
      "ScanningSequence": "EP",
      "SequenceName": "*epfid2d1_64",
      "SequenceVariant": "SK",
      "SeriesDescription": "EPI_DGIST_2",
      "SeriesNumber": 3,
      "SeriesTime": "131226.148000",
      "SliceLocation": -83.858855860499,
      "SliceThickness": 4.0,
      "SmallestImagePixelValue": 0,
      "SoftwareVersions": "syngo MR E11",
      "SpacingBetweenSlices": 4.7999999475772,
      "SpecificCharacterSet": "ISO_IR 100",
      "StudyID": "1",
      "StudyTime": "124845.414000",
      "TransmitCoilName": "Body",
      "VariableFlipAngleFlag": "N",
      "WindowCenterWidthExplanation": "Algo1",
      "dBdt": 0.0},
    "slices": {}
  },
  "time": {
    "samples": {
      "AcquisitionNumber": [1, 2, 3, 4, 5, 6, 7, 8, 9, 10, 11, 12, 13, 14, 15, 16, 17, 18, 19, 20, 21, 22, 23, 24, 25, 26, 27, 28, 29, 30, 31, 32, 33, 34, 35, 36, 37, 38, 39, 40, 41, 42, 43, 44, 45, 46, 47, 48, 49, 50, 51, 52, 53, 54, 55, 56, 57, 58, 59, 60, 61, 62, 63, 64, 65, 66, 67, 68, 69, 70, 71, 72, 73, 74, 75, 76, 77, 78, 79, 80, 81, 82, 83, 84, 85, 86, 87, 88, 89, 90, 91, 92, 93, 94, 95, 96, 97, 98, 99, 100, 101, 102, 103, 104, 105, 106, 107, 108, 109, 110, 111, 112, 113, 114, 115, 116, 117, 118, 119, 120, 121, 122, 123, 124, 125, 126, 127, 128, 129, 130, 131, 132, 133, 134, 135, 136, 137, 138, 139, 140, 141, 142, 143, 144, 145, 146, 147, 148, 149, 150, 151, 152, 153, 154, 155, 156, 157, 158, 159, 160, 161, 162, 163, 164, 165, 166, 167, 168, 169, 170, 171, 172, 173, 174, 175, 176, 177, 178, 179, 180, 181, 182, 183, 184, 185, 186, 187, 188, 189, 190, 191, 192, 193, 194, 195, 196, 197, 198, 199, 200, 201, 202, 203, 204, 205, 206, 207, 208, 209, 210, 211, 212, 213, 214, 215, 216, 217, 218, 219, 220, 221, 222, 223, 224, 225, 226, 227, 228, 229, 230, 231, 232, 233, 234, 235, 236, 237, 238, 239, 240, 241, 242, 243, 244, 245, 246, 247, 248, 249, 250, 251, 252, 253, 254, 255, 256, 257, 258, 259, 260, 261, 262, 263, 264, 265, 266, 267, 268, 269, 270, 271, 272, 273, 274, 275, 276, 277, 278, 279, 280, 281, 282, 283, 284, 285, 286, 287, 288, 289, 290, 291, 292, 293, 294, 295, 296, 297, 298, 299, 300, 301, 302, 303, 304, 305, 306, 307, 308, 309, 310, 311, 312, 313, 314, 315, 316, 317, 318, 319, 320, 321, 322, 323, 324, 325, 326, 327, 328, 329, 330, 331, 332, 333, 334, 335, 336, 337, 338, 339, 340, 341, 342, 343, 344, 345, 346, 347, 348, 349, 350, 351, 352, 353, 354, 355, 356, 357, 358, 359, 360, 361, 362, 363, 364],
      "AcquisitionTime": ["131207.520000", "131209.520000", "131211.520000", "131213.520000", "131215.520000", "131217.520000", "131219.520000", "131221.520000", "131223.520000", "131225.520000", "131227.520000", "131229.520000", "131231.520000", "131233.520000", "131235.520000", "131237.520000", "131239.520000", "131241.520000", "131243.520000", "131245.520000", "131247.520000", "131249.520000", "131251.520000", "131253.520000", "131255.520000", "131257.520000", "131259.520000", "131301.520000", "131303.520000", "131305.520000", "131307.520000", "131309.520000", "131311.520000", "131313.520000", "131315.520000", "131317.520000", "131319.520000", "131321.520000", "131323.520000", "131325.520000", "131327.520000", "131329.520000", "131331.520000", "131333.520000", "131335.520000", "131337.520000", "131339.520000", "131341.520000", "131343.520000", "131345.520000", "131347.520000", "131349.520000", "131351.520000", "131353.520000", "131355.520000", "131357.520000", "131359.520000", "131401.520000", "131403.520000", "131405.520000", "131407.520000", "131409.520000", "131411.520000", "131413.520000", "131415.520000", "131417.520000", "131419.520000", "131421.520000", "131423.520000", "131425.520000", "131427.520000", "131429.520000", "131431.520000", "131433.520000", "131435.520000", "131437.520000", "131439.520000", "131441.520000", "131443.520000", "131445.520000", "131447.520000", "131449.520000", "131451.520000", "131453.520000", "131455.520000", "131457.520000", "131459.520000", "131501.520000", "131503.520000", "131505.520000", "131507.520000", "131509.520000", "131511.520000", "131513.520000", "131515.520000", "131517.520000", "131519.520000", "131521.520000", "131523.520000", "131525.520000", "131527.520000", "131529.520000", "131531.520000", "131533.520000", "131535.520000", "131537.520000", "131539.520000", "131541.520000", "131543.520000", "131545.520000", "131547.520000", "131549.520000", "131551.520000", "131553.520000", "131555.520000", "131557.520000", "131559.520000", "131601.520000", "131603.520000", "131605.520000", "131607.520000", "131609.520000", "131611.520000", "131613.520000", "131615.520000", "131617.520000", "131619.520000", "131621.520000", "131623.520000", "131625.520000", "131627.520000", "131629.520000", "131631.520000", "131633.520000", "131635.520000", "131637.520000", "131639.520000", "131641.520000", "131643.520000", "131645.520000", "131647.520000", "131649.520000", "131651.520000", "131653.520000", "131655.520000", "131657.520000", "131659.520000", "131701.520000", "131703.520000", "131705.520000", "131707.520000", "131709.520000", "131711.520000", "131713.520000", "131715.520000", "131717.520000", "131719.520000", "131721.520000", "131723.520000", "131725.520000", "131727.520000", "131729.520000", "131731.520000", "131733.520000", "131735.520000", "131737.520000", "131739.520000", "131741.520000", "131743.520000", "131745.520000", "131747.520000", "131749.520000", "131751.520000", "131753.520000", "131755.520000", "131757.520000", "131759.520000", "131801.520000", "131803.520000", "131805.520000", "131807.520000", "131809.520000", "131811.520000", "131813.520000", "131815.520000", "131817.520000", "131819.520000", "131821.520000", "131823.520000", "131825.520000", "131827.520000", "131829.520000", "131831.520000", "131833.520000", "131835.520000", "131837.520000", "131839.520000", "131841.520000", "131843.520000", "131845.520000", "131847.520000", "131849.520000", "131851.520000", "131853.520000", "131855.520000", "131857.520000", "131859.520000", "131901.520000", "131903.520000", "131905.520000", "131907.520000", "131909.520000", "131911.520000", "131913.520000", "131915.520000", "131917.520000", "131919.520000", "131921.520000", "131923.520000", "131925.520000", "131927.520000", "131929.520000", "131931.520000", "131933.520000", "131935.520000", "131937.520000", "131939.520000", "131941.520000", "131943.520000", "131945.520000", "131947.520000", "131949.520000", "131951.520000", "131953.520000", "131955.520000", "131957.520000", "131959.520000", "132001.520000", "132003.520000", "132005.520000", "132007.520000", "132009.520000", "132011.520000", "132013.520000", "132015.520000", "132017.520000", "132019.520000", "132021.520000", "132023.520000", "132025.520000", "132027.520000", "132029.520000", "132031.520000", "132033.520000", "132035.520000", "132037.520000", "132039.520000", "132041.520000", "132043.520000", "132045.520000", "132047.520000", "132049.520000", "132051.520000", "132053.520000", "132055.520000", "132057.520000", "132059.520000", "132101.520000", "132103.520000", "132105.520000", "132107.520000", "132109.520000", "132111.520000", "132113.520000", "132115.520000", "132117.520000", "132119.520000", "132121.520000", "132123.520000", "132125.520000", "132127.520000", "132129.520000", "132131.520000", "132133.520000", "132135.520000", "132137.520000", "132139.520000", "132141.520000", "132143.520000", "132145.520000", "132147.520000", "132149.520000", "132151.520000", "132153.520000", "132155.520000", "132157.520000", "132159.520000", "132201.520000", "132203.520000", "132205.520000", "132207.520000", "132209.520000", "132211.520000", "132213.520000", "132215.520000", "132217.520000", "132219.520000", "132221.520000", "132223.520000", "132225.520000", "132227.520000", "132229.520000", "132231.520000", "132233.520000", "132235.520000", "132237.520000", "132239.520000", "132241.520000", "132243.520000", "132245.520000", "132247.520000", "132249.520000", "132251.520000", "132253.520000", "132255.520000", "132257.520000", "132259.520000", "132301.520000", "132303.520000", "132305.520000", "132307.520000", "132309.520000", "132311.520000", "132313.520000", "132315.520000", "132317.520000", "132319.520000", "132321.520000", "132323.520000", "132325.520000", "132327.520000", "132329.520000", "132331.520000", "132333.520000", "132335.520000", "132337.520000", "132339.520000", "132341.520000", "132343.520000", "132345.520000", "132347.520000", "132349.520000", "132351.520000", "132353.520000", "132355.520000", "132357.520000", "132359.520000", "132401.520000", "132403.520000", "132405.520000", "132407.520000", "132409.520000", "132411.520000", "132413.520000"],
      "ContentTime": ["131226.153000", "131226.156000", "131226.159000", "131226.161000", "131226.164000", "131226.166000", "131226.176000", "131226.178000", "131226.181000", "131306.147000", "131306.150000", "131306.153000", "131306.155000", "131306.201000", "131306.203000", "131306.206000", "131306.208000", "131306.211000", "131306.213000", "131306.216000", "131306.218000", "131306.221000", "131306.223000", "131306.226000", "131306.228000", "131306.238000", "131306.241000", "131306.243000", "131306.246000", "131346.147000", "131346.150000", "131346.153000", "131346.155000", "131346.158000", "131346.213000", "131346.222000", "131346.224000", "131346.227000", "131346.229000", "131346.232000", "131346.234000", "131346.237000", "131346.240000", "131346.243000", "131346.245000", "131346.248000", "131346.250000", "131346.252000", "131346.255000", "131426.146000", "131426.149000", "131426.152000", "131426.154000", "131426.157000", "131426.159000", "131426.162000", "131426.164000", "131426.167000", "131426.189000", "131426.191000", "131426.194000", "131426.196000", "131426.199000", "131426.201000", "131426.204000", "131426.206000", "131426.209000", "131426.211000", "131426.213000", "131506.146000", "131506.149000", "131506.152000", "131506.154000", "131506.157000", "131506.159000", "131506.162000", "131506.164000", "131506.166000", "131506.169000", "131506.190000", "131506.193000", "131506.195000", "131506.198000", "131506.200000", "131506.202000", "131506.205000", "131506.208000", "131506.210000", "131506.212000", "131546.147000", "131546.150000", "131546.153000", "131546.155000", "131546.158000", "131546.184000", "131546.187000", "131546.189000", "131546.191000", "131546.194000", "131546.196000", "131546.199000", "131546.201000", "131546.204000", "131546.206000", "131546.209000", "131546.211000", "131546.214000", "131546.216000", "131546.219000", "131626.147000", "131626.150000", "131626.153000", "131626.155000", "131626.158000", "131626.244000", "131626.246000", "131626.249000", "131626.251000", "131626.254000", "131626.256000", "131626.258000", "131626.261000", "131626.263000", "131626.266000", "131626.268000", "131626.271000", "131626.273000", "131626.276000", "131626.278000", "131706.146000", "131706.149000", "131706.152000", "131706.154000", "131706.157000", "131706.159000", "131706.162000", "131706.164000", "131706.166000", "131706.169000", "131706.171000", "131706.189000", "131706.192000", "131706.194000", "131706.196000", "131706.199000", "131706.201000", "131706.204000", "131706.206000", "131706.209000", "131746.148000", "131746.150000", "131746.153000", "131746.155000", "131746.158000", "131746.160000", "131746.163000", "131746.165000", "131746.168000", "131746.170000", "131746.173000", "131746.175000", "131746.178000", "131746.180000", "131746.183000", "131746.185000", "131746.188000", "131746.190000", "131746.192000", "131746.195000", "131826.147000", "131826.150000", "131826.153000", "131826.155000", "131826.158000", "131826.180000", "131826.183000", "131826.185000", "131826.188000", "131826.190000", "131826.192000", "131826.195000", "131826.197000", "131826.200000", "131826.202000", "131826.205000", "131826.207000", "131826.210000", "131826.212000", "131826.215000", "131906.146000", "131906.149000", "131906.152000", "131906.154000", "131906.157000", "131906.257000", "131906.260000", "131906.262000", "131906.264000", "131906.267000", "131906.269000", "131906.272000", "131906.274000", "131906.277000", "131906.279000", "131906.282000", "131906.284000", "131906.286000", "131906.289000", "131906.291000", "131946.146000", "131946.149000", "131946.152000", "131946.154000", "131946.157000", "131946.159000", "131946.162000", "131946.164000", "131946.167000", "131946.169000", "131946.172000", "131946.178000", "131946.180000", "131946.183000", "131946.185000", "131946.188000", "131946.190000", "131946.192000", "131946.195000", "131946.197000", "132026.147000", "132026.150000", "132026.153000", "132026.155000", "132026.158000", "132026.160000", "132026.163000", "132026.165000", "132026.168000", "132026.170000", "132026.173000", "132026.175000", "132026.178000", "132026.180000", "132026.183000", "132026.185000", "132026.188000", "132026.190000", "132026.192000", "132026.195000", "132106.147000", "132106.150000", "132106.153000", "132106.155000", "132106.158000", "132106.176000", "132106.179000", "132106.181000", "132106.184000", "132106.186000", "132106.189000", "132106.191000", "132106.194000", "132106.196000", "132106.199000", "132106.201000", "132106.204000", "132106.206000", "132106.209000", "132106.211000", "132146.146000", "132146.149000", "132146.152000", "132146.154000", "132146.157000", "132146.273000", "132146.275000", "132146.278000", "132146.280000", "132146.283000", "132146.285000", "132146.288000", "132146.290000", "132146.293000", "132146.295000", "132146.297000", "132146.300000", "132146.302000", "132146.305000", "132146.307000", "132226.148000", "132226.150000", "132226.153000", "132226.155000", "132226.158000", "132226.160000", "132226.163000", "132226.165000", "132226.168000", "132226.171000", "132226.173000", "132226.175000", "132226.178000", "132226.180000", "132226.183000", "132226.185000", "132226.188000", "132226.190000", "132226.193000", "132226.195000", "132306.147000", "132306.150000", "132306.153000", "132306.155000", "132306.158000", "132306.160000", "132306.163000", "132306.165000", "132306.168000", "132306.170000", "132306.173000", "132306.175000", "132306.178000", "132306.180000", "132306.183000", "132306.185000", "132306.187000", "132306.190000", "132306.192000", "132306.195000", "132346.146000", "132346.149000", "132346.152000", "132346.154000", "132346.157000", "132346.184000", "132346.186000", "132346.189000", "132346.191000", "132346.194000", "132346.196000", "132346.199000", "132346.201000", "132346.204000", "132346.206000", "132346.209000", "132346.211000", "132346.214000", "132346.216000", "132346.219000", "132415.000000", "132415.003000", "132415.005000", "132415.008000", "132415.011000", "132415.013000", "132415.016000", "132415.018000", "132415.021000", "132415.023000", "132415.026000", "132415.028000", "132415.032000", "132415.035000", "132415.039000"],
      "InstanceCreationTime": ["131226.153000", "131226.156000", "131226.159000", "131226.161000", "131226.164000", "131226.166000", "131226.176000", "131226.178000", "131226.181000", "131306.147000", "131306.150000", "131306.153000", "131306.155000", "131306.201000", "131306.203000", "131306.206000", "131306.208000", "131306.211000", "131306.213000", "131306.216000", "131306.218000", "131306.221000", "131306.223000", "131306.226000", "131306.228000", "131306.238000", "131306.241000", "131306.243000", "131306.246000", "131346.147000", "131346.150000", "131346.153000", "131346.155000", "131346.158000", "131346.213000", "131346.222000", "131346.224000", "131346.227000", "131346.229000", "131346.232000", "131346.234000", "131346.237000", "131346.240000", "131346.243000", "131346.245000", "131346.248000", "131346.250000", "131346.252000", "131346.255000", "131426.146000", "131426.149000", "131426.152000", "131426.154000", "131426.157000", "131426.159000", "131426.162000", "131426.164000", "131426.167000", "131426.189000", "131426.191000", "131426.194000", "131426.196000", "131426.199000", "131426.201000", "131426.204000", "131426.206000", "131426.209000", "131426.211000", "131426.213000", "131506.146000", "131506.149000", "131506.152000", "131506.154000", "131506.157000", "131506.159000", "131506.162000", "131506.164000", "131506.166000", "131506.169000", "131506.190000", "131506.193000", "131506.195000", "131506.198000", "131506.200000", "131506.202000", "131506.205000", "131506.208000", "131506.210000", "131506.212000", "131546.147000", "131546.150000", "131546.153000", "131546.155000", "131546.158000", "131546.184000", "131546.187000", "131546.189000", "131546.191000", "131546.194000", "131546.196000", "131546.199000", "131546.201000", "131546.204000", "131546.206000", "131546.209000", "131546.211000", "131546.214000", "131546.216000", "131546.219000", "131626.147000", "131626.150000", "131626.153000", "131626.155000", "131626.158000", "131626.244000", "131626.246000", "131626.249000", "131626.251000", "131626.254000", "131626.256000", "131626.258000", "131626.261000", "131626.263000", "131626.266000", "131626.268000", "131626.271000", "131626.273000", "131626.276000", "131626.278000", "131706.146000", "131706.149000", "131706.152000", "131706.154000", "131706.157000", "131706.159000", "131706.162000", "131706.164000", "131706.166000", "131706.169000", "131706.171000", "131706.189000", "131706.192000", "131706.194000", "131706.196000", "131706.199000", "131706.201000", "131706.204000", "131706.206000", "131706.209000", "131746.148000", "131746.150000", "131746.153000", "131746.155000", "131746.158000", "131746.160000", "131746.163000", "131746.165000", "131746.168000", "131746.170000", "131746.173000", "131746.175000", "131746.178000", "131746.180000", "131746.183000", "131746.185000", "131746.188000", "131746.190000", "131746.192000", "131746.195000", "131826.147000", "131826.150000", "131826.153000", "131826.155000", "131826.158000", "131826.180000", "131826.183000", "131826.185000", "131826.188000", "131826.190000", "131826.192000", "131826.195000", "131826.197000", "131826.200000", "131826.202000", "131826.205000", "131826.207000", "131826.210000", "131826.212000", "131826.215000", "131906.146000", "131906.149000", "131906.152000", "131906.154000", "131906.157000", "131906.257000", "131906.260000", "131906.262000", "131906.264000", "131906.267000", "131906.269000", "131906.272000", "131906.274000", "131906.277000", "131906.279000", "131906.282000", "131906.284000", "131906.286000", "131906.289000", "131906.291000", "131946.146000", "131946.149000", "131946.152000", "131946.154000", "131946.157000", "131946.159000", "131946.162000", "131946.164000", "131946.167000", "131946.169000", "131946.172000", "131946.178000", "131946.180000", "131946.183000", "131946.185000", "131946.188000", "131946.190000", "131946.192000", "131946.195000", "131946.197000", "132026.147000", "132026.150000", "132026.153000", "132026.155000", "132026.158000", "132026.160000", "132026.163000", "132026.165000", "132026.168000", "132026.170000", "132026.173000", "132026.175000", "132026.178000", "132026.180000", "132026.183000", "132026.185000", "132026.188000", "132026.190000", "132026.192000", "132026.195000", "132106.147000", "132106.150000", "132106.153000", "132106.155000", "132106.158000", "132106.176000", "132106.179000", "132106.181000", "132106.184000", "132106.186000", "132106.189000", "132106.191000", "132106.194000", "132106.196000", "132106.199000", "132106.201000", "132106.204000", "132106.206000", "132106.209000", "132106.211000", "132146.146000", "132146.149000", "132146.152000", "132146.154000", "132146.157000", "132146.273000", "132146.275000", "132146.278000", "132146.280000", "132146.283000", "132146.285000", "132146.288000", "132146.290000", "132146.293000", "132146.295000", "132146.297000", "132146.300000", "132146.302000", "132146.305000", "132146.307000", "132226.148000", "132226.150000", "132226.153000", "132226.155000", "132226.158000", "132226.160000", "132226.163000", "132226.165000", "132226.168000", "132226.171000", "132226.173000", "132226.175000", "132226.178000", "132226.180000", "132226.183000", "132226.185000", "132226.188000", "132226.190000", "132226.193000", "132226.195000", "132306.147000", "132306.150000", "132306.153000", "132306.155000", "132306.158000", "132306.160000", "132306.163000", "132306.165000", "132306.168000", "132306.170000", "132306.173000", "132306.175000", "132306.178000", "132306.180000", "132306.183000", "132306.185000", "132306.187000", "132306.190000", "132306.192000", "132306.195000", "132346.146000", "132346.149000", "132346.152000", "132346.154000", "132346.157000", "132346.184000", "132346.186000", "132346.189000", "132346.191000", "132346.194000", "132346.196000", "132346.199000", "132346.201000", "132346.204000", "132346.206000", "132346.209000", "132346.211000", "132346.214000", "132346.216000", "132346.219000", "132415.000000", "132415.003000", "132415.005000", "132415.008000", "132415.011000", "132415.013000", "132415.016000", "132415.018000", "132415.021000", "132415.023000", "132415.026000", "132415.028000", "132415.032000", "132415.035000", "132415.039000"],
      "InstanceNumber": [1, 2, 3, 4, 5, 6, 7, 8, 9, 10, 11, 12, 13, 14, 15, 16, 17, 18, 19, 20, 21, 22, 23, 24, 25, 26, 27, 28, 29, 30, 31, 32, 33, 34, 35, 36, 37, 38, 39, 40, 41, 42, 43, 44, 45, 46, 47, 48, 49, 50, 51, 52, 53, 54, 55, 56, 57, 58, 59, 60, 61, 62, 63, 64, 65, 66, 67, 68, 69, 70, 71, 72, 73, 74, 75, 76, 77, 78, 79, 80, 81, 82, 83, 84, 85, 86, 87, 88, 89, 90, 91, 92, 93, 94, 95, 96, 97, 98, 99, 100, 101, 102, 103, 104, 105, 106, 107, 108, 109, 110, 111, 112, 113, 114, 115, 116, 117, 118, 119, 120, 121, 122, 123, 124, 125, 126, 127, 128, 129, 130, 131, 132, 133, 134, 135, 136, 137, 138, 139, 140, 141, 142, 143, 144, 145, 146, 147, 148, 149, 150, 151, 152, 153, 154, 155, 156, 157, 158, 159, 160, 161, 162, 163, 164, 165, 166, 167, 168, 169, 170, 171, 172, 173, 174, 175, 176, 177, 178, 179, 180, 181, 182, 183, 184, 185, 186, 187, 188, 189, 190, 191, 192, 193, 194, 195, 196, 197, 198, 199, 200, 201, 202, 203, 204, 205, 206, 207, 208, 209, 210, 211, 212, 213, 214, 215, 216, 217, 218, 219, 220, 221, 222, 223, 224, 225, 226, 227, 228, 229, 230, 231, 232, 233, 234, 235, 236, 237, 238, 239, 240, 241, 242, 243, 244, 245, 246, 247, 248, 249, 250, 251, 252, 253, 254, 255, 256, 257, 258, 259, 260, 261, 262, 263, 264, 265, 266, 267, 268, 269, 270, 271, 272, 273, 274, 275, 276, 277, 278, 279, 280, 281, 282, 283, 284, 285, 286, 287, 288, 289, 290, 291, 292, 293, 294, 295, 296, 297, 298, 299, 300, 301, 302, 303, 304, 305, 306, 307, 308, 309, 310, 311, 312, 313, 314, 315, 316, 317, 318, 319, 320, 321, 322, 323, 324, 325, 326, 327, 328, 329, 330, 331, 332, 333, 334, 335, 336, 337, 338, 339, 340, 341, 342, 343, 344, 345, 346, 347, 348, 349, 350, 351, 352, 353, 354, 355, 356, 357, 358, 359, 360, 361, 362, 363, 364],
      "LargestImagePixelValue": [2791, 2723, 2688, 2673, 2673, 2687, 2694, 2698, 2707, 2701, 2721, 2706, 2713, 2713, 2702, 2708, 2723, 2726, 2696, 2699, 2685, 2694, 2692, 2689, 2705, 2714, 2678, 2679, 2696, 2697, 2695, 2687, 2673, 2709, 2714, 2710, 2721, 2698, 2711, 2725, 2717, 2718, 2716, 2716, 2723, 2732, 2721, 2708, 2704, 2689, 2690, 2674, 2697, 2715, 2699, 2698, 2685, 2705, 2697, 2698, 2671, 2673, 2761, 2677, 2645, 2662, 2666, 2660, 2657, 2656, 2655, 2662, 2660, 2671, 2690, 2697, 2696, 2697, 2729, 2746, 2741, 2711, 2717, 2702, 2700, 2662, 2681, 2696, 2705, 2703, 2704, 2676, 2671, 2686, 2687, 2675, 2697, 2723, 2759, 2744, 2715, 2702, 2710, 2725, 2715, 2704, 2718, 2713, 2740, 2735, 2736, 2731, 2738, 2728, 2734, 2730, 2725, 2743, 2718, 2710, 2711, 2830, 2771, 2683, 2663, 2676, 2676, 2676, 2689, 2692, 2691, 2665, 2679, 2683, 2682, 2683, 2687, 2688, 2679, 2667, 2673, 2674, 2667, 2672, 2678, 2671, 2652, 2671, 2678, 2689, 2762, 2685, 2699, 2644, 2643, 2660, 2656, 2642, 2638, 2650, 2651, 2656, 2648, 2655, 2668, 2670, 2692, 2675, 2656, 2659, 2646, 2663, 2659, 2660, 2673, 2678, 2682, 2688, 2678, 2699, 2688, 3174, 2739, 2791, 2810, 2845, 2851, 2834, 2839, 2839, 2831, 2848, 2837, 2841, 2842, 2851, 2782, 2762, 2738, 2732, 2747, 2752, 2717, 2751, 2769, 2776, 2751, 2710, 2717, 2698, 2677, 2706, 2684, 2696, 2710, 2695, 2694, 2695, 2710, 2692, 2725, 2735, 2673, 2693, 2680, 2676, 2671, 2667, 2672, 2676, 2677, 2660, 2674, 2678, 2663, 2659, 2662, 2655, 2673, 2648, 2671, 2793, 2734, 2735, 2715, 2715, 2705, 2705, 2714, 2712, 2726, 2712, 2724, 2721, 2705, 2706, 2704, 2703, 2685, 2697, 2688, 2717, 2725, 2701, 2686, 2703, 2686, 2696, 2755, 2749, 2710, 3013, 2892, 2836, 2770, 2788, 2776, 2779, 2804, 2769, 2776, 2798, 2764, 2769, 2771, 2807, 2778, 2777, 2760, 2738, 2757, 2756, 2785, 2762, 2744, 2742, 2779, 2793, 2765, 2757, 2733, 2692, 2679, 2678, 2694, 2694, 2688, 2685, 2670, 2673, 2692, 2682, 2670, 2672, 2675, 2690, 2668, 2684, 2706, 2672, 2695, 2679, 2665, 2669, 2675, 2676, 2679, 2665, 2674, 2719, 2738, 2751, 2749, 2744, 2753, 2740, 2726, 2728, 2726, 2717, 2717, 2727, 2732, 2733, 2739, 2732, 2766, 2739, 2733, 2712, 2717, 2707, 2729, 2727, 2731, 2734, 2740, 2739, 2747, 2748, 2822, 2711, 2727, 2682],
