{
  "AcquisitionMatrixPE": 64,
  "AcquisitionNumber": 1,
  "AcquisitionTime": "09:53:28.570000",
  "BandwidthPerPixelPhaseEncode": 25.202,
  "BaseResolution": 64,
  "BodyPartExamined": "BRAIN",
  "ConsistencyInfo": "N4_VE11C_LATEST_20160120",
  "ConversionSoftware": "dcm2niix",
  "ConversionSoftwareVersion": "v1.0.20201102",
  "DerivedVendorReportedEchoSpacing": 0.00061999,
  "DeviceSerialNumber": "45758",
  "DwellTime": 4.3e-06,
  "EchoTime": 0.03,
  "EchoTrainLength": 64,
  "EffectiveEchoSpacing": 0.00061999,
  "FlipAngle": 90,
  "ImageOrientationPatientDICOM": [0.996289, -0.0493235, 0.0705412, 0.0539571, 0.996402, -0.0653625],
  "ImageType": [
    "ORIGINAL",
    "PRIMARY",
    "M",
    "ND",
    "MOSAIC"
],
  "ImagingFrequency": 123.2,
  "InPlanePhaseEncodingDirectionDICOM": "ROW",
  "InstitutionAddress": "Street StreetNo,City /652E4B/,District,KR,ZIP",
  "InstitutionName": "DGMIF",
  "InstitutionalDepartmentName": "Department",
  "MRAcquisitionType": "2D",
  "MagneticFieldStrength": 3,
  "Manufacturer": "Siemens",
  "ManufacturersModelName": "Skyra",
  "Modality": "MR",
  "PartialFourier": 1,
  "PatientPosition": "HFS",
  "PercentPhaseFOV": 100,
  "PercentSampling": 100,
  "PhaseEncodingDirection": "i",
  "PhaseEncodingSteps": 64,
  "PhaseResolution": 1,
  "PixelBandwidth": 1815,
  "ProcedureStepDescription": "DGMIF^DGIST",
  "ProtocolName": "EPI_DGIST_2",
  "PulseSequenceDetails": "%SiemensSeq%\\ep2d_bold",
  "ReceiveCoilActiveElements": "HC1-7",
  "ReceiveCoilName": "HeadNeck_64",
  "ReconMatrixPE": 64,
  "RepetitionTime": 2,
  "SAR": 0.120662,
  "ScanOptions": "FS",
  "ScanningSequence": "EP",
  "SequenceName": "*epfid2d1_64",
  "SequenceVariant": "SK",
  "SeriesDescription": "EPI_DGIST_2",
  "SeriesNumber": 7,
  "ShimSetting": [-9742, -13723, -8234, 338, -359, -784, -291, -346],
  "SliceThickness": 4,
  "SliceTiming": [0.99, 0, 1.0575, 0.0675, 1.1225, 0.1325, 1.1875, 0.1975, 1.255, 0.265, 1.32, 0.33, 1.3875, 0.3975, 1.4525, 0.4625, 1.5175, 0.5275, 1.585, 0.595, 1.65, 0.66, 1.7175, 0.7275, 1.7825, 0.7925, 1.8475, 0.8575, 1.915, 0.925],
  "SoftwareVersions": "syngo MR E11",
  "SpacingBetweenSlices": 4.8,
  "StationName": "AWP45758",
  "TaskName": "asrt",
  "TotalReadoutTime": 0.0390594,
  "TxRefAmp": 299.346,
  "dcmmeta_affine": [
    [-2.988866090774536, 0.16187119483947754, 0.32190462946891785, 87.0198745727539],
    [0.14797063171863556, 2.9892051219940186, -0.3308453857898712, -120.31707000732422],
    [0.21162360906600952, 0.1960875242948532, 4.77775239944458, -75.0958023071289],
    [0.0, 0.0, 0.0, 1.0]
],
  "dcmmeta_reorient_transform": [
    [0.0, -1.0, 0.0, 63.0],
    [1.0, 0.0, 0.0, 0.0],
    [0.0, 0.0, 1.0, 0.0],
    [0.0, 0.0, 0.0, 1.0]
],
  "dcmmeta_shape": [64, 64, 30, 364],
  "dcmmeta_slice_dim": 2,
  "dcmmeta_version": 0.6,
  "global": {
    "const": {
      "AcquisitionMatrix": [0, 64, 64, 0],
      "AngioFlag": "N",
      "BitsAllocated": 16,
      "BitsStored": 12,
      "BodyPartExamined": "BRAIN",
      "Columns": 384,
      "EchoNumbers": 1,
      "EchoTime": 30.0,
      "EchoTrainLength": 64,
      "FlipAngle": 90.0,
      "HighBit": 11,
      "ImageOrientationPatient": [0.99628867630524, -0.0493235424647, 0.07054120515475, 0.05395706442051, 0.99640171514508, -0.0653625064931],
      "ImagePositionPatient": [-601.33571718072, -522.60037478445, -65.228066690084],
      "ImageType": [
        "ORIGINAL",
        "PRIMARY",
        "M",
        "ND",
        "MOSAIC"
],
      "ImagedNucleus": "1H",
      "ImagingFrequency": 123.200125,
      "InPlanePhaseEncodingDirection": "ROW",
      "MRAcquisitionType": "2D",
      "MagneticFieldStrength": 3.0,
      "Manufacturer": "SIEMENS",
      "ManufacturerModelName": "Skyra",
      "Modality": "MR",
      "NumberOfAverages": 1.0,
      "NumberOfPhaseEncodingSteps": 64,
      "PercentPhaseFieldOfView": 100.0,
      "PercentSampling": 100.0,
      "PerformedProcedureStepStartTime": "091342.473000",
      "PhotometricInterpretation": "MONOCHROME2",
      "PixelBandwidth": 1815.0,
      "PixelRepresentation": 0,
      "PixelSpacing": [3.0, 3.0],
      "ProtocolName": "EPI_DGIST_2",
      "RepetitionTime": 2000.0,
      "Rows": 384,
      "SAR": 0.12066184934656,
      "SamplesPerPixel": 1,
      "ScanOptions": "FS",
      "ScanningSequence": "EP",
      "SequenceName": "*epfid2d1_64",
      "SequenceVariant": "SK",
      "SeriesDescription": "EPI_DGIST_2",
      "SeriesNumber": 7,
      "SeriesTime": "095334.266000",
      "SliceLocation": -60.618899684616,
      "SliceThickness": 4.0,
      "SmallestImagePixelValue": 0,
      "SoftwareVersions": "syngo MR E11",
      "SpacingBetweenSlices": 4.7999999726825,
      "SpecificCharacterSet": "ISO_IR 100",
      "StudyID": "1",
      "StudyTime": "091342.319000",
      "TransmitCoilName": "Body",
      "VariableFlipAngleFlag": "N",
      "WindowCenterWidthExplanation": "Algo1",
      "dBdt": 0.0},
    "slices": {}
  },
  "time": {
    "samples": {
      "AcquisitionNumber": [1, 2, 3, 4, 5, 6, 7, 8, 9, 10, 11, 12, 13, 14, 15, 16, 17, 18, 19, 20, 21, 22, 23, 24, 25, 26, 27, 28, 29, 30, 31, 32, 33, 34, 35, 36, 37, 38, 39, 40, 41, 42, 43, 44, 45, 46, 47, 48, 49, 50, 51, 52, 53, 54, 55, 56, 57, 58, 59, 60, 61, 62, 63, 64, 65, 66, 67, 68, 69, 70, 71, 72, 73, 74, 75, 76, 77, 78, 79, 80, 81, 82, 83, 84, 85, 86, 87, 88, 89, 90, 91, 92, 93, 94, 95, 96, 97, 98, 99, 100, 101, 102, 103, 104, 105, 106, 107, 108, 109, 110, 111, 112, 113, 114, 115, 116, 117, 118, 119, 120, 121, 122, 123, 124, 125, 126, 127, 128, 129, 130, 131, 132, 133, 134, 135, 136, 137, 138, 139, 140, 141, 142, 143, 144, 145, 146, 147, 148, 149, 150, 151, 152, 153, 154, 155, 156, 157, 158, 159, 160, 161, 162, 163, 164, 165, 166, 167, 168, 169, 170, 171, 172, 173, 174, 175, 176, 177, 178, 179, 180, 181, 182, 183, 184, 185, 186, 187, 188, 189, 190, 191, 192, 193, 194, 195, 196, 197, 198, 199, 200, 201, 202, 203, 204, 205, 206, 207, 208, 209, 210, 211, 212, 213, 214, 215, 216, 217, 218, 219, 220, 221, 222, 223, 224, 225, 226, 227, 228, 229, 230, 231, 232, 233, 234, 235, 236, 237, 238, 239, 240, 241, 242, 243, 244, 245, 246, 247, 248, 249, 250, 251, 252, 253, 254, 255, 256, 257, 258, 259, 260, 261, 262, 263, 264, 265, 266, 267, 268, 269, 270, 271, 272, 273, 274, 275, 276, 277, 278, 279, 280, 281, 282, 283, 284, 285, 286, 287, 288, 289, 290, 291, 292, 293, 294, 295, 296, 297, 298, 299, 300, 301, 302, 303, 304, 305, 306, 307, 308, 309, 310, 311, 312, 313, 314, 315, 316, 317, 318, 319, 320, 321, 322, 323, 324, 325, 326, 327, 328, 329, 330, 331, 332, 333, 334, 335, 336, 337, 338, 339, 340, 341, 342, 343, 344, 345, 346, 347, 348, 349, 350, 351, 352, 353, 354, 355, 356, 357, 358, 359, 360, 361, 362, 363, 364],
      "AcquisitionTime": ["095328.570000", "095330.570000", "095332.570000", "095334.570000", "095336.570000", "095338.570000", "095340.570000", "095342.570000", "095344.570000", "095346.570000", "095348.570000", "095350.570000", "095352.570000", "095354.570000", "095356.570000", "095358.570000", "095400.570000", "095402.570000", "095404.570000", "095406.570000", "095408.570000", "095410.570000", "095412.570000", "095414.570000", "095416.570000", "095418.570000", "095420.570000", "095422.570000", "095424.570000", "095426.570000", "095428.570000", "095430.570000", "095432.570000", "095434.570000", "095436.570000", "095438.570000", "095440.570000", "095442.570000", "095444.570000", "095446.570000", "095448.570000", "095450.570000", "095452.570000", "095454.570000", "095456.570000", "095458.570000", "095500.570000", "095502.570000", "095504.570000", "095506.570000", "095508.570000", "095510.570000", "095512.570000", "095514.570000", "095516.570000", "095518.570000", "095520.570000", "095522.570000", "095524.570000", "095526.570000", "095528.570000", "095530.570000", "095532.570000", "095534.570000", "095536.570000", "095538.570000", "095540.570000", "095542.570000", "095544.570000", "095546.570000", "095548.570000", "095550.570000", "095552.570000", "095554.570000", "095556.570000", "095558.570000", "095600.570000", "095602.570000", "095604.570000", "095606.570000", "095608.570000", "095610.570000", "095612.570000", "095614.570000", "095616.570000", "095618.570000", "095620.570000", "095622.570000", "095624.570000", "095626.570000", "095628.570000", "095630.570000", "095632.570000", "095634.570000", "095636.570000", "095638.570000", "095640.570000", "095642.570000", "095644.570000", "095646.570000", "095648.570000", "095650.570000", "095652.570000", "095654.570000", "095656.570000", "095658.570000", "095700.570000", "095702.570000", "095704.570000", "095706.570000", "095708.570000", "095710.570000", "095712.570000", "095714.570000", "095716.570000", "095718.570000", "095720.570000", "095722.570000", "095724.570000", "095726.570000", "095728.570000", "095730.570000", "095732.570000", "095734.570000", "095736.570000", "095738.570000", "095740.570000", "095742.570000", "095744.570000", "095746.570000", "095748.570000", "095750.570000", "095752.570000", "095754.570000", "095756.570000", "095758.570000", "095800.570000", "095802.570000", "095804.570000", "095806.570000", "095808.570000", "095810.570000", "095812.570000", "095814.570000", "095816.570000", "095818.570000", "095820.570000", "095822.570000", "095824.570000", "095826.570000", "095828.570000", "095830.570000", "095832.570000", "095834.570000", "095836.570000", "095838.570000", "095840.570000", "095842.570000", "095844.570000", "095846.570000", "095848.570000", "095850.570000", "095852.570000", "095854.570000", "095856.570000", "095858.570000", "095900.570000", "095902.570000", "095904.570000", "095906.570000", "095908.570000", "095910.570000", "095912.570000", "095914.570000", "095916.570000", "095918.570000", "095920.570000", "095922.570000", "095924.570000", "095926.570000", "095928.570000", "095930.570000", "095932.570000", "095934.570000", "095936.570000", "095938.570000", "095940.570000", "095942.570000", "095944.570000", "095946.570000", "095948.570000", "095950.570000", "095952.570000", "095954.570000", "095956.570000", "095958.570000", "100000.570000", "100002.570000", "100004.570000", "100006.570000", "100008.570000", "100010.570000", "100012.570000", "100014.570000", "100016.570000", "100018.570000", "100020.570000", "100022.570000", "100024.570000", "100026.570000", "100028.570000", "100030.570000", "100032.570000", "100034.570000", "100036.570000", "100038.570000", "100040.570000", "100042.570000", "100044.570000", "100046.570000", "100048.570000", "100050.570000", "100052.570000", "100054.570000", "100056.570000", "100058.570000", "100100.570000", "100102.570000", "100104.570000", "100106.570000", "100108.570000", "100110.570000", "100112.570000", "100114.570000", "100116.570000", "100118.570000", "100120.570000", "100122.570000", "100124.570000", "100126.570000", "100128.570000", "100130.570000", "100132.570000", "100134.570000", "100136.570000", "100138.570000", "100140.570000", "100142.570000", "100144.570000", "100146.570000", "100148.570000", "100150.570000", "100152.570000", "100154.570000", "100156.570000", "100158.570000", "100200.570000", "100202.570000", "100204.570000", "100206.570000", "100208.570000", "100210.570000", "100212.570000", "100214.570000", "100216.570000", "100218.570000", "100220.570000", "100222.570000", "100224.570000", "100226.570000", "100228.570000", "100230.570000", "100232.570000", "100234.570000", "100236.570000", "100238.570000", "100240.570000", "100242.570000", "100244.570000", "100246.570000", "100248.570000", "100250.570000", "100252.570000", "100254.570000", "100256.570000", "100258.570000", "100300.570000", "100302.570000", "100304.570000", "100306.570000", "100308.570000", "100310.570000", "100312.570000", "100314.570000", "100316.570000", "100318.570000", "100320.570000", "100322.570000", "100324.570000", "100326.570000", "100328.570000", "100330.570000", "100332.570000", "100334.570000", "100336.570000", "100338.570000", "100340.570000", "100342.570000", "100344.570000", "100346.570000", "100348.570000", "100350.570000", "100352.570000", "100354.570000", "100356.570000", "100358.570000", "100400.570000", "100402.570000", "100404.570000", "100406.570000", "100408.570000", "100410.570000", "100412.570000", "100414.570000", "100416.570000", "100418.570000", "100420.570000", "100422.570000", "100424.570000", "100426.570000", "100428.570000", "100430.570000", "100432.570000", "100434.570000", "100436.570000", "100438.570000", "100440.570000", "100442.570000", "100444.570000", "100446.570000", "100448.570000", "100450.570000", "100452.570000", "100454.570000", "100456.570000", "100458.570000", "100500.570000", "100502.570000", "100504.570000", "100506.570000", "100508.570000", "100510.570000", "100512.570000", "100514.570000", "100516.570000", "100518.570000", "100520.570000", "100522.570000", "100524.570000", "100526.570000", "100528.570000", "100530.570000", "100532.570000", "100534.570000"],
      "ContentTime": ["095334.269000", "095334.273000", "095334.275000", "095414.264000", "095414.267000", "095414.270000", "095414.272000", "095414.275000", "095414.277000", "095414.280000", "095414.290000", "095414.293000", "095414.295000", "095414.298000", "095414.300000", "095414.302000", "095414.305000", "095414.307000", "095414.310000", "095414.312000", "095414.315000", "095414.326000", "095414.329000", "095454.263000", "095454.266000", "095454.269000", "095454.271000", "095454.273000", "095454.276000", "095454.278000", "095454.281000", "095454.283000", "095454.286000", "095454.288000", "095454.291000", "095454.293000", "095454.296000", "095454.298000", "095454.300000", "095454.303000", "095454.305000", "095454.308000", "095454.310000", "095534.264000", "095534.267000", "095534.270000", "095534.272000", "095534.275000", "095534.277000", "095534.280000", "095534.282000", "095534.285000", "095534.287000", "095534.289000", "095534.292000", "095534.294000", "095534.297000", "095534.299000", "095534.302000", "095534.304000", "095534.307000", "095534.309000", "095534.312000", "095614.265000", "095614.267000", "095614.270000", "095614.272000", "095614.275000", "095614.277000", "095614.280000", "095614.282000", "095614.285000", "095614.287000", "095614.289000", "095614.292000", "095614.294000", "095614.297000", "095614.299000", "095614.302000", "095614.304000", "095614.307000", "095614.309000", "095614.312000", "095654.264000", "095654.267000", "095654.270000", "095654.272000", "095654.275000", "095654.277000", "095654.280000", "095654.282000", "095654.284000", "095654.287000", "095654.289000", "095654.292000", "095654.294000", "095654.297000", "095654.299000", "095654.302000", "095654.304000", "095654.307000", "095654.309000", "095654.312000", "095734.265000", "095734.267000", "095734.270000", "095734.272000", "095734.275000", "095734.277000", "095734.280000", "095734.282000", "095734.285000", "095734.287000", "095734.290000", "095734.292000", "095734.295000", "095734.297000", "095734.300000", "095734.302000", "095734.304000", "095734.307000", "095734.309000", "095734.312000", "095814.264000", "095814.267000", "095814.270000", "095814.272000", "095814.275000", "095814.277000", "095814.280000", "095814.282000", "095814.285000", "095814.289000", "095814.291000", "095814.294000", "095814.296000", "095814.299000", "095814.301000", "095814.304000", "095814.306000", "095814.308000", "095814.311000", "095814.313000", "095854.264000", "095854.267000", "095854.270000", "095854.272000", "095854.275000", "095854.277000", "095854.280000", "095854.282000", "095854.285000", "095854.287000", "095854.289000", "095854.292000", "095854.294000", "095854.297000", "095854.299000", "095854.302000", "095854.304000", "095854.307000", "095854.309000", "095854.311000", "095934.264000", "095934.266000", "095934.269000", "095934.271000", "095934.274000", "095934.276000", "095934.279000", "095934.281000", "095934.284000", "095934.286000", "095934.289000", "095934.291000", "095934.294000", "095934.296000", "095934.299000", "095934.301000", "095934.303000", "095934.306000", "095934.308000", "095934.311000", "100014.264000", "100014.267000", "100014.270000", "100014.272000", "100014.275000", "100014.277000", "100014.280000", "100014.282000", "100014.285000", "100014.287000", "100014.290000", "100014.292000", "100014.295000", "100014.297000", "100014.300000", "100014.302000", "100014.305000", "100014.307000", "100014.310000", "100014.312000", "100054.264000", "100054.267000", "100054.270000", "100054.272000", "100054.275000", "100054.277000", "100054.280000", "100054.282000", "100054.285000", "100054.287000", "100054.290000", "100054.292000", "100054.295000", "100054.297000", "100054.300000", "100054.302000", "100054.305000", "100054.307000", "100054.310000", "100054.312000", "100134.264000", "100134.267000", "100134.270000", "100134.272000", "100134.275000", "100134.277000", "100134.280000", "100134.282000", "100134.285000", "100134.287000", "100134.290000", "100134.292000", "100134.295000", "100134.297000", "100134.299000", "100134.302000", "100134.304000", "100134.307000", "100134.309000", "100134.312000", "100214.265000", "100214.267000", "100214.270000", "100214.272000", "100214.275000", "100214.277000", "100214.280000", "100214.282000", "100214.285000", "100214.287000", "100214.290000", "100214.292000", "100214.295000", "100214.297000", "100214.300000", "100214.302000", "100214.305000", "100214.307000", "100214.310000", "100214.312000", "100254.264000", "100254.267000", "100254.270000", "100254.272000", "100254.275000", "100254.277000", "100254.280000", "100254.282000", "100254.284000", "100254.287000", "100254.289000", "100254.298000", "100254.301000", "100254.303000", "100254.306000", "100254.308000", "100254.311000", "100254.313000", "100254.316000", "100254.318000", "100334.264000", "100334.267000", "100334.270000", "100334.272000", "100334.275000", "100334.277000", "100334.280000", "100334.282000", "100334.285000", "100334.287000", "100334.290000", "100334.292000", "100334.294000", "100334.297000", "100334.300000", "100334.302000", "100334.305000", "100334.307000", "100334.309000", "100334.312000", "100414.263000", "100414.266000", "100414.269000", "100414.271000", "100414.274000", "100414.276000", "100414.279000", "100414.281000", "100414.284000", "100414.286000", "100414.289000", "100414.291000", "100414.294000", "100414.296000", "100414.298000", "100414.315000", "100414.317000", "100414.320000", "100414.322000", "100414.325000", "100454.265000", "100454.267000", "100454.270000", "100454.273000", "100454.275000", "100454.278000", "100454.280000", "100454.282000", "100454.285000", "100454.287000", "100454.290000", "100454.292000", "100454.295000", "100454.297000", "100454.300000", "100454.302000", "100454.305000", "100454.307000", "100454.310000", "100454.312000", "100534.264000", "100534.267000", "100534.270000", "100534.272000", "100534.275000", "100534.277000", "100534.280000", "100534.282000", "100534.285000", "100534.287000", "100534.289000", "100534.292000", "100534.294000", "100534.297000", "100534.299000", "100534.302000", "100534.304000", "100534.307000", "100534.309000", "100534.312000", "100535.958000"],
      "InstanceCreationTime": ["095334.269000", "095334.273000", "095334.275000", "095414.264000", "095414.267000", "095414.270000", "095414.272000", "095414.275000", "095414.277000", "095414.280000", "095414.290000", "095414.293000", "095414.295000", "095414.298000", "095414.300000", "095414.302000", "095414.305000", "095414.307000", "095414.310000", "095414.312000", "095414.315000", "095414.326000", "095414.329000", "095454.263000", "095454.266000", "095454.269000", "095454.271000", "095454.273000", "095454.276000", "095454.278000", "095454.281000", "095454.283000", "095454.286000", "095454.288000", "095454.291000", "095454.293000", "095454.296000", "095454.298000", "095454.300000", "095454.303000", "095454.305000", "095454.308000", "095454.310000", "095534.264000", "095534.267000", "095534.270000", "095534.272000", "095534.275000", "095534.277000", "095534.280000", "095534.282000", "095534.285000", "095534.287000", "095534.289000", "095534.292000", "095534.294000", "095534.297000", "095534.299000", "095534.302000", "095534.304000", "095534.307000", "095534.309000", "095534.312000", "095614.265000", "095614.267000", "095614.270000", "095614.272000", "095614.275000", "095614.277000", "095614.280000", "095614.282000", "095614.285000", "095614.287000", "095614.289000", "095614.292000", "095614.294000", "095614.297000", "095614.299000", "095614.302000", "095614.304000", "095614.307000", "095614.309000", "095614.312000", "095654.264000", "095654.267000", "095654.270000", "095654.272000", "095654.275000", "095654.277000", "095654.280000", "095654.282000", "095654.284000", "095654.287000", "095654.289000", "095654.292000", "095654.294000", "095654.297000", "095654.299000", "095654.302000", "095654.304000", "095654.307000", "095654.309000", "095654.312000", "095734.265000", "095734.267000", "095734.270000", "095734.272000", "095734.275000", "095734.277000", "095734.280000", "095734.282000", "095734.285000", "095734.287000", "095734.290000", "095734.292000", "095734.295000", "095734.297000", "095734.300000", "095734.302000", "095734.304000", "095734.307000", "095734.309000", "095734.312000", "095814.264000", "095814.267000", "095814.270000", "095814.272000", "095814.275000", "095814.277000", "095814.280000", "095814.282000", "095814.285000", "095814.289000", "095814.291000", "095814.294000", "095814.296000", "095814.299000", "095814.301000", "095814.304000", "095814.306000", "095814.308000", "095814.311000", "095814.313000", "095854.264000", "095854.267000", "095854.270000", "095854.272000", "095854.275000", "095854.277000", "095854.280000", "095854.282000", "095854.285000", "095854.287000", "095854.289000", "095854.292000", "095854.294000", "095854.297000", "095854.299000", "095854.302000", "095854.304000", "095854.307000", "095854.309000", "095854.311000", "095934.264000", "095934.266000", "095934.269000", "095934.271000", "095934.274000", "095934.276000", "095934.279000", "095934.281000", "095934.284000", "095934.286000", "095934.289000", "095934.291000", "095934.294000", "095934.296000", "095934.299000", "095934.301000", "095934.303000", "095934.306000", "095934.308000", "095934.311000", "100014.264000", "100014.267000", "100014.270000", "100014.272000", "100014.275000", "100014.277000", "100014.280000", "100014.282000", "100014.285000", "100014.287000", "100014.290000", "100014.292000", "100014.295000", "100014.297000", "100014.300000", "100014.302000", "100014.305000", "100014.307000", "100014.310000", "100014.312000", "100054.264000", "100054.267000", "100054.270000", "100054.272000", "100054.275000", "100054.277000", "100054.280000", "100054.282000", "100054.285000", "100054.287000", "100054.290000", "100054.292000", "100054.295000", "100054.297000", "100054.300000", "100054.302000", "100054.305000", "100054.307000", "100054.310000", "100054.312000", "100134.264000", "100134.267000", "100134.270000", "100134.272000", "100134.275000", "100134.277000", "100134.280000", "100134.282000", "100134.285000", "100134.287000", "100134.290000", "100134.292000", "100134.295000", "100134.297000", "100134.299000", "100134.302000", "100134.304000", "100134.307000", "100134.309000", "100134.312000", "100214.265000", "100214.267000", "100214.270000", "100214.272000", "100214.275000", "100214.277000", "100214.280000", "100214.282000", "100214.285000", "100214.287000", "100214.290000", "100214.292000", "100214.295000", "100214.297000", "100214.300000", "100214.302000", "100214.305000", "100214.307000", "100214.310000", "100214.312000", "100254.264000", "100254.267000", "100254.270000", "100254.272000", "100254.275000", "100254.277000", "100254.280000", "100254.282000", "100254.284000", "100254.287000", "100254.289000", "100254.298000", "100254.301000", "100254.303000", "100254.306000", "100254.308000", "100254.311000", "100254.313000", "100254.316000", "100254.318000", "100334.264000", "100334.267000", "100334.270000", "100334.272000", "100334.275000", "100334.277000", "100334.280000", "100334.282000", "100334.285000", "100334.287000", "100334.290000", "100334.292000", "100334.294000", "100334.297000", "100334.300000", "100334.302000", "100334.305000", "100334.307000", "100334.309000", "100334.312000", "100414.263000", "100414.266000", "100414.269000", "100414.271000", "100414.274000", "100414.276000", "100414.279000", "100414.281000", "100414.284000", "100414.286000", "100414.289000", "100414.291000", "100414.294000", "100414.296000", "100414.298000", "100414.315000", "100414.317000", "100414.320000", "100414.322000", "100414.325000", "100454.265000", "100454.267000", "100454.270000", "100454.273000", "100454.275000", "100454.278000", "100454.280000", "100454.282000", "100454.285000", "100454.287000", "100454.290000", "100454.292000", "100454.295000", "100454.297000", "100454.300000", "100454.302000", "100454.305000", "100454.307000", "100454.310000", "100454.312000", "100534.264000", "100534.267000", "100534.270000", "100534.272000", "100534.275000", "100534.277000", "100534.280000", "100534.282000", "100534.285000", "100534.287000", "100534.289000", "100534.292000", "100534.294000", "100534.297000", "100534.299000", "100534.302000", "100534.304000", "100534.307000", "100534.309000", "100534.312000", "100535.958000"],
      "InstanceNumber": [1, 2, 3, 4, 5, 6, 7, 8, 9, 10, 11, 12, 13, 14, 15, 16, 17, 18, 19, 20, 21, 22, 23, 24, 25, 26, 27, 28, 29, 30, 31, 32, 33, 34, 35, 36, 37, 38, 39, 40, 41, 42, 43, 44, 45, 46, 47, 48, 49, 50, 51, 52, 53, 54, 55, 56, 57, 58, 59, 60, 61, 62, 63, 64, 65, 66, 67, 68, 69, 70, 71, 72, 73, 74, 75, 76, 77, 78, 79, 80, 81, 82, 83, 84, 85, 86, 87, 88, 89, 90, 91, 92, 93, 94, 95, 96, 97, 98, 99, 100, 101, 102, 103, 104, 105, 106, 107, 108, 109, 110, 111, 112, 113, 114, 115, 116, 117, 118, 119, 120, 121, 122, 123, 124, 125, 126, 127, 128, 129, 130, 131, 132, 133, 134, 135, 136, 137, 138, 139, 140, 141, 142, 143, 144, 145, 146, 147, 148, 149, 150, 151, 152, 153, 154, 155, 156, 157, 158, 159, 160, 161, 162, 163, 164, 165, 166, 167, 168, 169, 170, 171, 172, 173, 174, 175, 176, 177, 178, 179, 180, 181, 182, 183, 184, 185, 186, 187, 188, 189, 190, 191, 192, 193, 194, 195, 196, 197, 198, 199, 200, 201, 202, 203, 204, 205, 206, 207, 208, 209, 210, 211, 212, 213, 214, 215, 216, 217, 218, 219, 220, 221, 222, 223, 224, 225, 226, 227, 228, 229, 230, 231, 232, 233, 234, 235, 236, 237, 238, 239, 240, 241, 242, 243, 244, 245, 246, 247, 248, 249, 250, 251, 252, 253, 254, 255, 256, 257, 258, 259, 260, 261, 262, 263, 264, 265, 266, 267, 268, 269, 270, 271, 272, 273, 274, 275, 276, 277, 278, 279, 280, 281, 282, 283, 284, 285, 286, 287, 288, 289, 290, 291, 292, 293, 294, 295, 296, 297, 298, 299, 300, 301, 302, 303, 304, 305, 306, 307, 308, 309, 310, 311, 312, 313, 314, 315, 316, 317, 318, 319, 320, 321, 322, 323, 324, 325, 326, 327, 328, 329, 330, 331, 332, 333, 334, 335, 336, 337, 338, 339, 340, 341, 342, 343, 344, 345, 346, 347, 348, 349, 350, 351, 352, 353, 354, 355, 356, 357, 358, 359, 360, 361, 362, 363, 364],
      "LargestImagePixelValue": [2800, 2771, 2733, 2719, 2726, 2722, 2727, 2737, 2741, 2729, 2721, 2736, 2722, 2723, 2716, 2727, 2715, 2728, 2723, 2739, 2733, 2751, 2756, 2746, 2746, 2735, 2721, 2735, 2747, 2728, 2745, 2733, 2764, 2749, 2736, 2723, 2732, 2738, 2737, 2738, 2726, 2726, 2725, 2732, 2708, 2713, 2739, 2720, 2735, 2706, 2736, 2734, 2711, 2715, 2718, 2727, 2721, 2735, 2707, 2707, 2719, 2750, 2749, 2739, 2714, 2728, 2718, 2717, 2727, 2729, 2733, 2737, 2737, 2744, 2722, 2729, 2731, 2730, 2715, 2707, 2727, 2718, 2711, 2711, 2726, 2732, 2718, 2713, 2719, 2721, 2732, 2728, 2730, 2730, 2739, 2698, 2700, 2706, 2724, 2703, 2720, 2718, 2712, 2705, 2719, 2724, 2706, 2726, 2711, 2708, 2719, 2703, 2713, 2709, 2709, 2718, 2724, 2711, 2723, 2718, 2710, 2726, 2736, 2713, 2732, 2711, 2701, 2712, 2711, 2720, 2703, 2717, 2717, 2719, 2701, 2716, 2719, 2721, 2726, 2714, 2715, 2712, 2732, 2720, 2721, 2722, 2728, 2728, 2722, 2709, 2721, 2752, 2715, 2717, 2716, 2718, 2714, 2726, 2722, 2720, 2721, 2722, 2723, 2721, 2693, 2718, 2726, 2722, 2713, 2705, 2721, 2721, 2724, 2725, 2702, 2719, 2710, 2718, 2719, 2721, 2708, 2700, 2707, 2692, 2711, 2711, 2725, 2703, 2702, 2701, 2708, 2697, 2688, 2691, 2718, 2697, 2706, 2693, 2707, 2703, 2728, 2710, 2705, 2704, 2709, 2699, 2714, 2706, 2694, 2693, 2727, 2706, 2713, 2698, 2712, 2714, 2695, 2708, 2703, 2705, 2704, 2711, 2707, 2720, 2711, 2685, 2701, 2707, 2691, 2704, 2693, 2697, 2701, 2694, 2705, 2695, 2684, 2686, 2697, 2696, 2699, 2702, 2708, 2690, 2708, 2692, 2689, 2689, 2699, 2683, 2694, 2690, 2704, 2700, 2700, 2691, 2694, 2691, 2679, 2668, 2683, 2699, 2671, 2693, 2677, 2682, 2672, 2668, 2668, 2671, 2712, 2684, 2685, 2701, 2705, 2681, 2671, 2694, 2697, 2689, 2649, 2686, 2683, 2677, 2678, 2688, 2669, 2672, 2657, 2683, 2678, 2654, 2654, 2674, 2694, 2668, 2671, 2658, 2674, 2664, 2689, 2674, 2697, 2679, 2651, 2670, 2657, 2650, 2614, 2608, 2622, 2612, 2613, 2639, 2650, 2638, 2658, 2658, 2663, 2665, 2663, 2658, 2642, 2666, 2638, 2642, 2636, 2659, 2649, 2644, 2772, 2712, 2677, 2681, 2682, 2702, 2691, 2661, 2680, 2687, 2683, 2667, 2675, 2663, 2651, 2657, 2660, 2646, 2657, 2648, 2672, 2650, 2670, 2660, 2662, 2638, 2666, 2661, 2656, 2652, 2692, 2661, 2659, 2660],
