{
  "AcquisitionMatrixPE": 64,
  "AcquisitionNumber": 1,
  "AcquisitionTime": "09:50:33.707500",
  "BandwidthPerPixelPhaseEncode": 25.202,
  "BaseResolution": 64,
  "BodyPartExamined": "BRAIN",
  "ConsistencyInfo": "N4_VD13C_LATEST_20121124",
  "ConversionSoftware": "dcm2niix",
  "ConversionSoftwareVersion": "v1.0.20201102",
  "DerivedVendorReportedEchoSpacing": 0.00061999,
  "DeviceSerialNumber": "45758",
  "DwellTime": 4.3e-06,
  "EchoTime": 0.03,
  "EchoTrainLength": 64,
  "EffectiveEchoSpacing": 0.00061999,
  "FlipAngle": 90,
  "ImageOrientationPatientDICOM": [0.994702, -0.102434, 0.00866025, 0.102792, 0.992097, -0.0719512],
  "ImageType": [
    "ORIGINAL",
    "PRIMARY",
    "M",
    "ND",
    "MOSAIC"
],
  "ImagingFrequency": 123.2,
  "InPlanePhaseEncodingDirectionDICOM": "ROW",
  "InstitutionAddress": "Street StreetNo,City /652E4B/,District,KR,ZIP",
  "InstitutionName": "DGMIF",
  "InstitutionalDepartmentName": "Department",
  "MRAcquisitionType": "2D",
  "MagneticFieldStrength": 3,
  "Manufacturer": "Siemens",
  "ManufacturersModelName": "Skyra",
  "Modality": "MR",
  "PartialFourier": 1,
  "PatientPosition": "HFS",
  "PercentPhaseFOV": 100,
  "PercentSampling": 100,
  "PhaseEncodingDirection": "i",
  "PhaseEncodingSteps": 64,
  "PhaseResolution": 1,
  "PixelBandwidth": 1815,
  "ProcedureStepDescription": "DGMIF^DGIST_Jeon",
  "ProtocolName": "EPI_DGIST_2",
  "PulseSequenceDetails": "%SiemensSeq%\\ep2d_bold",
  "ReceiveCoilActiveElements": "HC1-7",
  "ReceiveCoilName": "HeadNeck_64",
  "ReconMatrixPE": 64,
  "RepetitionTime": 2,
  "SAR": 0.121784,
  "ScanOptions": "FS",
  "ScanningSequence": "EP",
  "SequenceName": "*epfid2d1_64",
  "SequenceVariant": "SK",
  "SeriesDescription": "EPI_DGIST_2",
  "SeriesNumber": 3,
  "ShimSetting": [-9729, -13721, -8190, 224, -270, -353, -168, -84],
  "SliceThickness": 4,
  "SliceTiming": [0.99, 0, 1.0575, 0.0675, 1.1225, 0.1325, 1.1875, 0.2, 1.255, 0.265, 1.32, 0.33, 1.3875, 0.3975, 1.4525, 0.4625, 1.5175, 0.5275, 1.585, 0.595, 1.65, 0.66, 1.7175, 0.7275, 1.7825, 0.7925, 1.8475, 0.8575, 1.915, 0.925],
  "SoftwareVersions": "syngo MR D13C",
  "SpacingBetweenSlices": 4.8,
  "StationName": "AWP45758",
  "TaskName": "asrt",
  "TotalReadoutTime": 0.0390594,
  "TxRefAmp": 331.678,
  "dcmmeta_affine": [
    [-2.9841063022613525, 0.30837738513946533, 0.0058633871376514435, 83.8641128540039],
    [0.307302862405777, 2.9762914180755615, -0.34780898690223694, -127.50830078125],
    [0.025980744510889053, 0.21585357189178467, 4.787378311157227, -72.92971801757812],
    [0.0, 0.0, 0.0, 1.0]
],
  "dcmmeta_reorient_transform": [
    [0.0, -1.0, 0.0, 63.0],
    [1.0, 0.0, 0.0, 0.0],
    [0.0, 0.0, 1.0, 0.0],
    [0.0, 0.0, 0.0, 1.0]
],
  "dcmmeta_shape": [64, 64, 30, 364],
  "dcmmeta_slice_dim": 2,
  "dcmmeta_version": 0.6,
  "global": {
    "const": {
      "AcquisitionMatrix": [0, 64, 64, 0],
      "AngioFlag": "N",
      "BitsAllocated": 16,
      "BitsStored": 12,
      "BodyPartExamined": "BRAIN",
      "Columns": 384,
      "EchoNumbers": 1,
      "EchoTime": 30.0,
      "EchoTrainLength": 64,
      "FlipAngle": 90.0,
      "HighBit": 11,
      "ImageOrientationPatient": [0.99470207477814, -0.1024342839549, 0.00866024842012, 0.10279246214814, 0.99209714036598, -0.0719511904222],
      "ImagePositionPatient": [-630.08926827808, -487.03623269144, -28.951293017151],
      "ImageType": [
        "ORIGINAL",
        "PRIMARY",
        "M",
        "ND",
        "MOSAIC"
],
      "ImagedNucleus": "1H",
      "ImagingFrequency": 123.200154,
      "InPlanePhaseEncodingDirection": "ROW",
      "MRAcquisitionType": "2D",
      "MagneticFieldStrength": 3.0,
      "Manufacturer": "SIEMENS",
      "ManufacturerModelName": "Skyra",
      "Modality": "MR",
      "NumberOfAverages": 1.0,
      "NumberOfPhaseEncodingSteps": 64,
      "PercentPhaseFieldOfView": 100.0,
      "PercentSampling": 100.0,
      "PerformedProcedureStepStartTime": "092743.689000",
      "PhotometricInterpretation": "MONOCHROME2",
      "PixelBandwidth": 1815.0,
      "PixelRepresentation": 0,
      "PixelSpacing": [3.0, 3.0],
      "ProtocolName": "EPI_DGIST_2",
      "RepetitionTime": 2000.0,
      "Rows": 384,
      "SAR": 0.12178405806178,
      "SamplesPerPixel": 1,
      "ScanOptions": "FS",
      "ScanningSequence": "EP",
      "SequenceName": "*epfid2d1_64",
      "SequenceVariant": "SK",
      "SeriesDescription": "EPI_DGIST_2",
      "SeriesNumber": 3,
      "SeriesTime": "095131.956000",
      "SliceLocation": -63.396234658235,
      "SliceThickness": 4.0,
      "SmallestImagePixelValue": 0,
      "SoftwareVersions": "syngo MR D13C",
      "SpacingBetweenSlices": 4.7999998377005,
      "SpecificCharacterSet": "ISO_IR 100",
      "StudyID": "1",
      "StudyTime": "092743.590000",
      "TimeOfLastCalibration": ["123723.000000", "123723.000000"],
      "TransmitCoilName": "Body",
      "VariableFlipAngleFlag": "N",
      "WindowCenterWidthExplanation": "Algo1",
      "dBdt": 0.0},
    "slices": {}
  },
  "time": {
    "samples": {
      "AcquisitionNumber": [1, 2, 3, 4, 5, 6, 7, 8, 9, 10, 11, 12, 13, 14, 15, 16, 17, 18, 19, 20, 21, 22, 23, 24, 25, 26, 27, 28, 29, 30, 31, 32, 33, 34, 35, 36, 37, 38, 39, 40, 41, 42, 43, 44, 45, 46, 47, 48, 49, 50, 51, 52, 53, 54, 55, 56, 57, 58, 59, 60, 61, 62, 63, 64, 65, 66, 67, 68, 69, 70, 71, 72, 73, 74, 75, 76, 77, 78, 79, 80, 81, 82, 83, 84, 85, 86, 87, 88, 89, 90, 91, 92, 93, 94, 95, 96, 97, 98, 99, 100, 101, 102, 103, 104, 105, 106, 107, 108, 109, 110, 111, 112, 113, 114, 115, 116, 117, 118, 119, 120, 121, 122, 123, 124, 125, 126, 127, 128, 129, 130, 131, 132, 133, 134, 135, 136, 137, 138, 139, 140, 141, 142, 143, 144, 145, 146, 147, 148, 149, 150, 151, 152, 153, 154, 155, 156, 157, 158, 159, 160, 161, 162, 163, 164, 165, 166, 167, 168, 169, 170, 171, 172, 173, 174, 175, 176, 177, 178, 179, 180, 181, 182, 183, 184, 185, 186, 187, 188, 189, 190, 191, 192, 193, 194, 195, 196, 197, 198, 199, 200, 201, 202, 203, 204, 205, 206, 207, 208, 209, 210, 211, 212, 213, 214, 215, 216, 217, 218, 219, 220, 221, 222, 223, 224, 225, 226, 227, 228, 229, 230, 231, 232, 233, 234, 235, 236, 237, 238, 239, 240, 241, 242, 243, 244, 245, 246, 247, 248, 249, 250, 251, 252, 253, 254, 255, 256, 257, 258, 259, 260, 261, 262, 263, 264, 265, 266, 267, 268, 269, 270, 271, 272, 273, 274, 275, 276, 277, 278, 279, 280, 281, 282, 283, 284, 285, 286, 287, 288, 289, 290, 291, 292, 293, 294, 295, 296, 297, 298, 299, 300, 301, 302, 303, 304, 305, 306, 307, 308, 309, 310, 311, 312, 313, 314, 315, 316, 317, 318, 319, 320, 321, 322, 323, 324, 325, 326, 327, 328, 329, 330, 331, 332, 333, 334, 335, 336, 337, 338, 339, 340, 341, 342, 343, 344, 345, 346, 347, 348, 349, 350, 351, 352, 353, 354, 355, 356, 357, 358, 359, 360, 361, 362, 363, 364],
      "AcquisitionTime": ["095033.707500", "095035.707500", "095037.707500", "095039.707500", "095041.707500", "095043.707500", "095045.707500", "095047.707500", "095049.707500", "095051.707500", "095053.707500", "095055.707500", "095057.707500", "095059.707500", "095101.707500", "095103.707500", "095105.707500", "095107.707500", "095109.707500", "095111.707500", "095113.707500", "095115.707500", "095117.707500", "095119.707500", "095121.707500", "095123.707500", "095125.707500", "095127.707500", "095129.707500", "095131.707500", "095133.707500", "095135.707500", "095137.707500", "095139.707500", "095141.707500", "095143.707500", "095145.707500", "095147.707500", "095149.707500", "095151.707500", "095153.707500", "095155.707500", "095157.707500", "095159.707500", "095201.707500", "095203.707500", "095205.707500", "095207.707500", "095209.707500", "095211.707500", "095213.707500", "095215.707500", "095217.707500", "095219.707500", "095221.707500", "095223.707500", "095225.707500", "095227.707500", "095229.707500", "095231.707500", "095233.707500", "095235.710000", "095237.710000", "095239.710000", "095241.710000", "095243.710000", "095245.710000", "095247.710000", "095249.710000", "095251.710000", "095253.710000", "095255.710000", "095257.710000", "095259.710000", "095301.710000", "095303.710000", "095305.710000", "095307.710000", "095309.710000", "095311.710000", "095313.710000", "095315.710000", "095317.710000", "095319.710000", "095321.710000", "095323.710000", "095325.710000", "095327.710000", "095329.710000", "095331.710000", "095333.710000", "095335.710000", "095337.710000", "095339.710000", "095341.710000", "095343.710000", "095345.710000", "095347.710000", "095349.710000", "095351.710000", "095353.710000", "095355.710000", "095357.710000", "095359.710000", "095401.710000", "095403.710000", "095405.710000", "095407.710000", "095409.710000", "095411.710000", "095413.710000", "095415.710000", "095417.710000", "095419.710000", "095421.710000", "095423.710000", "095425.710000", "095427.710000", "095429.710000", "095431.710000", "095433.710000", "095435.710000", "095437.710000", "095439.710000", "095441.710000", "095443.710000", "095445.710000", "095447.710000", "095449.710000", "095451.710000", "095453.710000", "095455.710000", "095457.710000", "095459.710000", "095501.710000", "095503.710000", "095505.710000", "095507.710000", "095509.710000", "095511.710000", "095513.710000", "095515.710000", "095517.710000", "095519.710000", "095521.710000", "095523.710000", "095525.710000", "095527.710000", "095529.710000", "095531.710000", "095533.710000", "095535.710000", "095537.710000", "095539.710000", "095541.710000", "095543.710000", "095545.710000", "095547.710000", "095549.710000", "095551.710000", "095553.710000", "095555.710000", "095557.710000", "095559.710000", "095601.710000", "095603.710000", "095605.710000", "095607.710000", "095609.710000", "095611.710000", "095613.710000", "095615.710000", "095617.710000", "095619.710000", "095621.710000", "095623.710000", "095625.710000", "095627.710000", "095629.710000", "095631.710000", "095633.710000", "095635.710000", "095637.710000", "095639.710000", "095641.710000", "095643.710000", "095645.710000", "095647.710000", "095649.710000", "095651.710000", "095653.710000", "095655.710000", "095657.710000", "095659.710000", "095701.710000", "095703.710000", "095705.710000", "095707.710000", "095709.710000", "095711.710000", "095713.710000", "095715.710000", "095717.710000", "095719.710000", "095721.710000", "095723.710000", "095725.710000", "095727.710000", "095729.710000", "095731.710000", "095733.710000", "095735.710000", "095737.710000", "095739.710000", "095741.710000", "095743.710000", "095745.710000", "095747.710000", "095749.710000", "095751.710000", "095753.710000", "095755.710000", "095757.710000", "095759.710000", "095801.710000", "095803.710000", "095805.710000", "095807.710000", "095809.710000", "095811.710000", "095813.710000", "095815.710000", "095817.710000", "095819.710000", "095821.710000", "095823.710000", "095825.710000", "095827.710000", "095829.710000", "095831.710000", "095833.710000", "095835.710000", "095837.710000", "095839.710000", "095841.710000", "095843.710000", "095845.710000", "095847.710000", "095849.710000", "095851.710000", "095853.710000", "095855.710000", "095857.710000", "095859.710000", "095901.710000", "095903.710000", "095905.710000", "095907.710000", "095909.710000", "095911.710000", "095913.710000", "095915.710000", "095917.710000", "095919.710000", "095921.710000", "095923.710000", "095925.710000", "095927.710000", "095929.710000", "095931.710000", "095933.710000", "095935.710000", "095937.710000", "095939.710000", "095941.710000", "095943.710000", "095945.710000", "095947.710000", "095949.710000", "095951.710000", "095953.710000", "095955.710000", "095957.710000", "095959.710000", "100001.710000", "100003.710000", "100005.710000", "100007.710000", "100009.710000", "100011.710000", "100013.710000", "100015.710000", "100017.710000", "100019.710000", "100021.710000", "100023.710000", "100025.710000", "100027.710000", "100029.710000", "100031.710000", "100033.710000", "100035.710000", "100037.710000", "100039.710000", "100041.710000", "100043.710000", "100045.710000", "100047.710000", "100049.710000", "100051.710000", "100053.710000", "100055.712500", "100057.712500", "100059.712500", "100101.712500", "100103.712500", "100105.712500", "100107.712500", "100109.712500", "100111.712500", "100113.712500", "100115.712500", "100117.712500", "100119.712500", "100121.712500", "100123.712500", "100125.712500", "100127.712500", "100129.712500", "100131.712500", "100133.712500", "100135.712500", "100137.712500", "100139.712500", "100141.712500", "100143.712500", "100145.712500", "100147.712500", "100149.712500", "100151.712500", "100153.712500", "100155.712500", "100157.712500", "100159.712500", "100201.712500", "100203.712500", "100205.712500", "100207.712500", "100209.712500", "100211.712500", "100213.712500", "100215.712500", "100217.712500", "100219.712500", "100221.712500", "100223.712500", "100225.712500", "100227.712500", "100229.712500", "100231.712500", "100233.712500", "100235.712500", "100237.712500", "100239.712500"],
      "ContentTime": ["095131.960000", "095131.963000", "095131.965000", "095131.967000", "095131.969000", "095131.971000", "095131.973000", "095131.975000", "095131.977000", "095131.979000", "095131.981000", "095131.990000", "095131.992000", "095131.994000", "095131.996000", "095131.998000", "095132.001000", "095132.003000", "095132.005000", "095132.007000", "095132.009000", "095132.011000", "095132.013000", "095132.015000", "095132.017000", "095132.019000", "095132.030000", "095132.032000", "095132.034000", "095211.954000", "095211.956000", "095211.958000", "095211.960000", "095211.962000", "095211.964000", "095211.966000", "095211.968000", "095211.970000", "095211.972000", "095211.974000", "095211.976000", "095211.978000", "095211.980000", "095211.982000", "095211.984000", "095211.986000", "095211.991000", "095211.993000", "095211.995000", "095251.953000", "095251.955000", "095251.957000", "095251.959000", "095251.961000", "095251.963000", "095251.965000", "095251.967000", "095251.969000", "095251.971000", "095251.973000", "095251.975000", "095251.977000", "095251.979000", "095251.981000", "095251.983000", "095251.985000", "095251.987000", "095251.989000", "095251.991000", "095331.954000", "095331.956000", "095331.958000", "095331.960000", "095331.962000", "095331.964000", "095331.966000", "095331.968000", "095331.970000", "095331.972000", "095331.974000", "095331.976000", "095331.978000", "095331.980000", "095331.982000", "095331.984000", "095331.986000", "095331.988000", "095331.990000", "095331.992000", "095411.954000", "095411.956000", "095411.964000", "095411.966000", "095411.968000", "095411.970000", "095411.972000", "095411.974000", "095411.976000", "095411.978000", "095411.980000", "095411.982000", "095411.984000", "095411.986000", "095411.988000", "095411.990000", "095411.998000", "095412.001000", "095412.003000", "095412.005000", "095451.953000", "095451.955000", "095451.957000", "095451.959000", "095451.961000", "095451.963000", "095451.965000", "095451.967000", "095451.969000", "095451.971000", "095451.973000", "095451.975000", "095451.977000", "095451.979000", "095451.981000", "095451.983000", "095451.985000", "095451.987000", "095451.989000", "095451.991000", "095531.953000", "095531.955000", "095531.957000", "095531.959000", "095531.961000", "095531.963000", "095531.965000", "095531.967000", "095531.969000", "095531.971000", "095531.973000", "095531.975000", "095531.977000", "095531.979000", "095531.981000", "095531.983000", "095531.985000", "095531.987000", "095531.989000", "095531.991000", "095611.954000", "095611.956000", "095611.958000", "095611.960000", "095611.962000", "095611.964000", "095611.966000", "095611.968000", "095611.970000", "095611.972000", "095611.974000", "095611.976000", "095611.978000", "095611.980000", "095611.981000", "095611.983000", "095611.985000", "095611.987000", "095611.989000", "095611.991000", "095651.954000", "095651.956000", "095651.958000", "095651.960000", "095651.962000", "095651.964000", "095651.966000", "095651.968000", "095651.970000", "095651.972000", "095651.974000", "095651.976000", "095651.978000", "095651.980000", "095651.982000", "095651.984000", "095651.986000", "095651.988000", "095651.990000", "095651.992000", "095731.953000", "095731.955000", "095731.957000", "095731.959000", "095731.961000", "095731.963000", "095731.965000", "095731.967000", "095731.969000", "095731.971000", "095731.973000", "095731.975000", "095731.977000", "095731.979000", "095731.981000", "095731.983000", "095731.985000", "095731.987000", "095731.989000", "095731.991000", "095811.954000", "095811.956000", "095811.958000", "095811.960000", "095811.962000", "095811.964000", "095811.966000", "095811.968000", "095811.970000", "095811.972000", "095811.974000", "095811.976000", "095811.978000", "095811.980000", "095811.982000", "095811.984000", "095811.986000", "095811.988000", "095811.990000", "095811.992000", "095851.954000", "095851.956000", "095851.958000", "095851.960000", "095851.962000", "095851.964000", "095851.966000", "095851.968000", "095851.970000", "095851.972000", "095851.974000", "095851.976000", "095851.978000", "095851.980000", "095851.982000", "095851.984000", "095851.986000", "095851.988000", "095851.990000", "095851.992000", "095931.953000", "095931.955000", "095931.957000", "095931.959000", "095931.961000", "095931.963000", "095931.981000", "095931.983000", "095931.985000", "095931.987000", "095931.989000", "095931.991000", "095931.993000", "095931.995000", "095931.997000", "095932.000000", "095932.002000", "095932.004000", "095932.006000", "095932.008000", "100011.953000", "100011.955000", "100011.957000", "100011.959000", "100011.961000", "100011.963000", "100011.965000", "100011.967000", "100011.969000", "100011.971000", "100011.973000", "100011.975000", "100011.977000", "100011.979000", "100011.981000", "100011.983000", "100011.985000", "100011.987000", "100011.989000", "100011.991000", "100051.954000", "100051.956000", "100051.958000", "100051.960000", "100051.962000", "100051.964000", "100051.966000", "100051.968000", "100051.970000", "100051.972000", "100051.974000", "100051.976000", "100051.978000", "100051.980000", "100051.982000", "100051.984000", "100051.987000", "100051.989000", "100051.991000", "100051.993000", "100131.954000", "100131.956000", "100131.958000", "100131.960000", "100131.962000", "100131.964000", "100131.966000", "100131.968000", "100131.970000", "100131.972000", "100131.974000", "100131.976000", "100131.978000", "100131.980000", "100131.982000", "100131.984000", "100131.986000", "100131.988000", "100131.990000", "100131.992000", "100211.953000", "100211.955000", "100211.957000", "100211.959000", "100211.962000", "100211.963000", "100211.965000", "100211.967000", "100211.969000", "100211.971000", "100211.973000", "100211.976000", "100211.978000", "100211.980000", "100211.982000", "100211.984000", "100211.986000", "100211.988000", "100211.990000", "100211.992000", "100241.269000", "100241.271000", "100241.274000", "100241.276000", "100241.277000", "100241.279000", "100241.281000", "100241.283000", "100241.285000", "100241.287000", "100241.289000", "100241.291000", "100241.294000", "100241.297000", "100241.300000"],
      "InstanceCreationTime": ["095131.960000", "095131.963000", "095131.965000", "095131.967000", "095131.969000", "095131.971000", "095131.973000", "095131.975000", "095131.977000", "095131.979000", "095131.981000", "095131.990000", "095131.992000", "095131.994000", "095131.996000", "095131.998000", "095132.001000", "095132.003000", "095132.005000", "095132.007000", "095132.009000", "095132.011000", "095132.013000", "095132.015000", "095132.017000", "095132.019000", "095132.030000", "095132.032000", "095132.034000", "095211.954000", "095211.956000", "095211.958000", "095211.960000", "095211.962000", "095211.964000", "095211.966000", "095211.968000", "095211.970000", "095211.972000", "095211.974000", "095211.976000", "095211.978000", "095211.980000", "095211.982000", "095211.984000", "095211.986000", "095211.991000", "095211.993000", "095211.995000", "095251.953000", "095251.955000", "095251.957000", "095251.959000", "095251.961000", "095251.963000", "095251.965000", "095251.967000", "095251.969000", "095251.971000", "095251.973000", "095251.975000", "095251.977000", "095251.979000", "095251.981000", "095251.983000", "095251.985000", "095251.987000", "095251.989000", "095251.991000", "095331.954000", "095331.956000", "095331.958000", "095331.960000", "095331.962000", "095331.964000", "095331.966000", "095331.968000", "095331.970000", "095331.972000", "095331.974000", "095331.976000", "095331.978000", "095331.980000", "095331.982000", "095331.984000", "095331.986000", "095331.988000", "095331.990000", "095331.992000", "095411.954000", "095411.956000", "095411.964000", "095411.966000", "095411.968000", "095411.970000", "095411.972000", "095411.974000", "095411.976000", "095411.978000", "095411.980000", "095411.982000", "095411.984000", "095411.986000", "095411.988000", "095411.990000", "095411.998000", "095412.001000", "095412.003000", "095412.005000", "095451.953000", "095451.955000", "095451.957000", "095451.959000", "095451.961000", "095451.963000", "095451.965000", "095451.967000", "095451.969000", "095451.971000", "095451.973000", "095451.975000", "095451.977000", "095451.979000", "095451.981000", "095451.983000", "095451.985000", "095451.987000", "095451.989000", "095451.991000", "095531.953000", "095531.955000", "095531.957000", "095531.959000", "095531.961000", "095531.963000", "095531.965000", "095531.967000", "095531.969000", "095531.971000", "095531.973000", "095531.975000", "095531.977000", "095531.979000", "095531.981000", "095531.983000", "095531.985000", "095531.987000", "095531.989000", "095531.991000", "095611.954000", "095611.956000", "095611.958000", "095611.960000", "095611.962000", "095611.964000", "095611.966000", "095611.968000", "095611.970000", "095611.972000", "095611.974000", "095611.976000", "095611.978000", "095611.980000", "095611.981000", "095611.983000", "095611.985000", "095611.987000", "095611.989000", "095611.991000", "095651.954000", "095651.956000", "095651.958000", "095651.960000", "095651.962000", "095651.964000", "095651.966000", "095651.968000", "095651.970000", "095651.972000", "095651.974000", "095651.976000", "095651.978000", "095651.980000", "095651.982000", "095651.984000", "095651.986000", "095651.988000", "095651.990000", "095651.992000", "095731.953000", "095731.955000", "095731.957000", "095731.959000", "095731.961000", "095731.963000", "095731.965000", "095731.967000", "095731.969000", "095731.971000", "095731.973000", "095731.975000", "095731.977000", "095731.979000", "095731.981000", "095731.983000", "095731.985000", "095731.987000", "095731.989000", "095731.991000", "095811.954000", "095811.956000", "095811.958000", "095811.960000", "095811.962000", "095811.964000", "095811.966000", "095811.968000", "095811.970000", "095811.972000", "095811.974000", "095811.976000", "095811.978000", "095811.980000", "095811.982000", "095811.984000", "095811.986000", "095811.988000", "095811.990000", "095811.992000", "095851.954000", "095851.956000", "095851.958000", "095851.960000", "095851.962000", "095851.964000", "095851.966000", "095851.968000", "095851.970000", "095851.972000", "095851.974000", "095851.976000", "095851.978000", "095851.980000", "095851.982000", "095851.984000", "095851.986000", "095851.988000", "095851.990000", "095851.992000", "095931.953000", "095931.955000", "095931.957000", "095931.959000", "095931.961000", "095931.963000", "095931.981000", "095931.983000", "095931.985000", "095931.987000", "095931.989000", "095931.991000", "095931.993000", "095931.995000", "095931.997000", "095932.000000", "095932.002000", "095932.004000", "095932.006000", "095932.008000", "100011.953000", "100011.955000", "100011.957000", "100011.959000", "100011.961000", "100011.963000", "100011.965000", "100011.967000", "100011.969000", "100011.971000", "100011.973000", "100011.975000", "100011.977000", "100011.979000", "100011.981000", "100011.983000", "100011.985000", "100011.987000", "100011.989000", "100011.991000", "100051.954000", "100051.956000", "100051.958000", "100051.960000", "100051.962000", "100051.964000", "100051.966000", "100051.968000", "100051.970000", "100051.972000", "100051.974000", "100051.976000", "100051.978000", "100051.980000", "100051.982000", "100051.984000", "100051.987000", "100051.989000", "100051.991000", "100051.993000", "100131.954000", "100131.956000", "100131.958000", "100131.960000", "100131.962000", "100131.964000", "100131.966000", "100131.968000", "100131.970000", "100131.972000", "100131.974000", "100131.976000", "100131.978000", "100131.980000", "100131.982000", "100131.984000", "100131.986000", "100131.988000", "100131.990000", "100131.992000", "100211.953000", "100211.955000", "100211.957000", "100211.959000", "100211.962000", "100211.963000", "100211.965000", "100211.967000", "100211.969000", "100211.971000", "100211.973000", "100211.976000", "100211.978000", "100211.980000", "100211.982000", "100211.984000", "100211.986000", "100211.988000", "100211.990000", "100211.992000", "100241.269000", "100241.271000", "100241.274000", "100241.276000", "100241.277000", "100241.279000", "100241.281000", "100241.283000", "100241.285000", "100241.287000", "100241.289000", "100241.291000", "100241.294000", "100241.297000", "100241.300000"],
      "InstanceNumber": [1, 2, 3, 4, 5, 6, 7, 8, 9, 10, 11, 12, 13, 14, 15, 16, 17, 18, 19, 20, 21, 22, 23, 24, 25, 26, 27, 28, 29, 30, 31, 32, 33, 34, 35, 36, 37, 38, 39, 40, 41, 42, 43, 44, 45, 46, 47, 48, 49, 50, 51, 52, 53, 54, 55, 56, 57, 58, 59, 60, 61, 62, 63, 64, 65, 66, 67, 68, 69, 70, 71, 72, 73, 74, 75, 76, 77, 78, 79, 80, 81, 82, 83, 84, 85, 86, 87, 88, 89, 90, 91, 92, 93, 94, 95, 96, 97, 98, 99, 100, 101, 102, 103, 104, 105, 106, 107, 108, 109, 110, 111, 112, 113, 114, 115, 116, 117, 118, 119, 120, 121, 122, 123, 124, 125, 126, 127, 128, 129, 130, 131, 132, 133, 134, 135, 136, 137, 138, 139, 140, 141, 142, 143, 144, 145, 146, 147, 148, 149, 150, 151, 152, 153, 154, 155, 156, 157, 158, 159, 160, 161, 162, 163, 164, 165, 166, 167, 168, 169, 170, 171, 172, 173, 174, 175, 176, 177, 178, 179, 180, 181, 182, 183, 184, 185, 186, 187, 188, 189, 190, 191, 192, 193, 194, 195, 196, 197, 198, 199, 200, 201, 202, 203, 204, 205, 206, 207, 208, 209, 210, 211, 212, 213, 214, 215, 216, 217, 218, 219, 220, 221, 222, 223, 224, 225, 226, 227, 228, 229, 230, 231, 232, 233, 234, 235, 236, 237, 238, 239, 240, 241, 242, 243, 244, 245, 246, 247, 248, 249, 250, 251, 252, 253, 254, 255, 256, 257, 258, 259, 260, 261, 262, 263, 264, 265, 266, 267, 268, 269, 270, 271, 272, 273, 274, 275, 276, 277, 278, 279, 280, 281, 282, 283, 284, 285, 286, 287, 288, 289, 290, 291, 292, 293, 294, 295, 296, 297, 298, 299, 300, 301, 302, 303, 304, 305, 306, 307, 308, 309, 310, 311, 312, 313, 314, 315, 316, 317, 318, 319, 320, 321, 322, 323, 324, 325, 326, 327, 328, 329, 330, 331, 332, 333, 334, 335, 336, 337, 338, 339, 340, 341, 342, 343, 344, 345, 346, 347, 348, 349, 350, 351, 352, 353, 354, 355, 356, 357, 358, 359, 360, 361, 362, 363, 364],
      "LargestImagePixelValue": [2924, 2835, 2825, 2816, 2806, 2791, 2802, 2792, 2797, 2789, 2794, 2793, 2801, 2793, 2795, 2797, 2798, 2784, 2777, 2782, 2778, 2784, 2783, 2774, 2781, 2789, 2787, 2787, 2791, 2786, 2802, 2793, 2786, 2788, 2792, 2792, 2799, 2802, 2798, 2808, 2816, 2813, 2800, 2809, 2803, 2799, 2797, 2794, 2765, 2792, 2790, 2796, 2774, 2788, 2799, 2784, 2799, 2778, 2800, 2795, 2809, 2810, 2805, 2796, 2792, 2793, 2792, 2788, 2789, 2797, 2801, 2787, 2799, 2794, 2788, 2795, 2803, 2796, 2797, 2797, 2783, 2787, 2791, 2791, 2782, 2778, 2782, 2776, 2774, 2773, 2797, 2788, 2798, 2785, 2791, 2772, 2783, 2791, 2783, 2775, 2788, 2799, 2794, 2782, 2784, 2787, 2774, 2786, 2780, 2783, 2786, 2791, 2771, 2772, 2767, 2782, 2781, 2765, 2775, 2796, 2796, 2776, 2773, 2768, 2786, 2775, 2793, 2779, 2792, 2781, 2779, 2783, 2779, 2790, 2782, 2783, 2780, 2788, 2771, 2772, 2787, 2782, 2787, 2776, 2781, 2792, 2782, 2767, 2775, 2779, 2803, 2794, 2787, 2774, 2789, 2788, 2805, 2782, 2794, 2792, 2791, 2799, 2789, 2787, 2785, 2787, 2794, 2788, 2790, 2788, 2771, 2788, 2789, 2772, 2795, 2789, 2791, 2803, 2813, 2814, 2825, 2797, 2775, 2789, 2788, 2780, 2792, 2798, 2801, 2800, 2773, 2781, 2796, 2779, 2777, 2782, 2770, 2797, 2809, 2801, 2795, 2809, 2807, 2804, 2813, 2808, 2806, 2804, 2794, 2813, 2806, 2816, 2818, 2809, 2808, 2805, 2803, 2817, 2820, 2804, 2801, 2816, 2823, 2808, 2810, 2808, 2817, 2812, 2807, 2802, 2807, 2810, 2811, 2800, 2806, 2798, 2816, 2809, 2803, 2816, 2822, 2824, 2815, 2814, 2827, 2811, 2815, 2820, 2801, 2823, 2792, 2794, 2817, 2812, 2814, 2805, 2812, 2804, 2821, 2814, 2809, 2804, 2813, 2814, 2804, 2808, 2826, 2797, 2810, 2820, 2825, 2829, 2825, 2819, 2817, 2798, 2816, 2813, 2813, 2805, 2808, 2803, 2797, 2799, 2796, 2814, 2798, 2804, 2813, 2805, 2817, 2795, 2809, 2814, 2813, 2803, 2814, 2808, 2821, 2820, 2812, 2822, 2806, 2807, 2806, 2797, 2796, 2798, 2806, 2812, 2795, 2800, 2812, 2811, 2810, 2811, 2801, 2808, 2812, 2791, 2779, 2806, 2799, 2780, 2784, 2787, 2799, 2780, 2791, 2796, 2797, 2780, 2781, 2777, 2785, 2778, 2775, 2786, 2776, 2788, 2780, 2772, 2783, 2782, 2779, 2764, 2762, 2768, 2768, 2768, 2774, 2772, 2767, 2769, 2771, 2774, 2774, 2755, 2773, 2768, 2760, 2771, 2756, 2754],
