{
  "AcquisitionMatrixPE": 64,
  "AcquisitionNumber": 1,
  "AcquisitionTime": "10:04:32.280000",
  "BandwidthPerPixelPhaseEncode": 25.202,
  "BaseResolution": 64,
  "BodyPartExamined": "BRAIN",
  "ConsistencyInfo": "N4_VD13C_LATEST_20121124",
  "ConversionSoftware": "dcm2niix",
  "ConversionSoftwareVersion": "v1.0.20201102",
  "DerivedVendorReportedEchoSpacing": 0.00061999,
  "DeviceSerialNumber": "45758",
  "DwellTime": 4.3e-06,
  "EchoTime": 0.03,
  "EchoTrainLength": 64,
  "EffectiveEchoSpacing": 0.00061999,
  "FlipAngle": 90,
  "ImageOrientationPatientDICOM": [0.994702, -0.102434, 0.00866025, 0.102792, 0.992097, -0.0719512],
  "ImageType": [
    "ORIGINAL",
    "PRIMARY",
    "M",
    "ND",
    "MOSAIC"
],
  "ImagingFrequency": 123.2,
  "InPlanePhaseEncodingDirectionDICOM": "ROW",
  "InstitutionAddress": "Street StreetNo,City /652E4B/,District,KR,ZIP",
  "InstitutionName": "DGMIF",
  "InstitutionalDepartmentName": "Department",
  "MRAcquisitionType": "2D",
  "MagneticFieldStrength": 3,
  "Manufacturer": "Siemens",
  "ManufacturersModelName": "Skyra",
  "Modality": "MR",
  "PartialFourier": 1,
  "PatientPosition": "HFS",
  "PercentPhaseFOV": 100,
  "PercentSampling": 100,
  "PhaseEncodingDirection": "i",
  "PhaseEncodingSteps": 64,
  "PhaseResolution": 1,
  "PixelBandwidth": 1815,
  "ProcedureStepDescription": "DGMIF^DGIST_Jeon",
  "ProtocolName": "EPI_DGIST_3",
  "PulseSequenceDetails": "%SiemensSeq%\\ep2d_bold",
  "ReceiveCoilActiveElements": "HC1-7",
  "ReceiveCoilName": "HeadNeck_64",
  "ReconMatrixPE": 64,
  "RepetitionTime": 2,
  "SAR": 0.121784,
  "ScanOptions": "FS",
  "ScanningSequence": "EP",
  "SequenceName": "*epfid2d1_64",
  "SequenceVariant": "SK",
  "SeriesDescription": "EPI_DGIST_3",
  "SeriesNumber": 4,
  "ShimSetting": [-9729, -13721, -8190, 224, -270, -353, -168, -84],
  "SliceThickness": 4,
  "SliceTiming": [0.99, 0, 1.0575, 0.0675, 1.1225, 0.1325, 1.1875, 0.2, 1.255, 0.265, 1.32, 0.33, 1.3875, 0.3975, 1.4525, 0.4625, 1.5175, 0.53, 1.585, 0.595, 1.65, 0.66, 1.7175, 0.7275, 1.7825, 0.7925, 1.8475, 0.8575, 1.915, 0.925],
  "SoftwareVersions": "syngo MR D13C",
  "SpacingBetweenSlices": 4.8,
  "StationName": "AWP45758",
  "TaskName": "asrt",
  "TotalReadoutTime": 0.0390594,
  "TxRefAmp": 331.678,
  "dcmmeta_affine": [
    [-2.9841063022613525, 0.30837738513946533, 0.0058633871376514435, 83.8641128540039],
    [0.307302862405777, 2.9762914180755615, -0.34780898690223694, -127.50830078125],
    [0.025980744510889053, 0.21585357189178467, 4.787378311157227, -72.92971801757812],
    [0.0, 0.0, 0.0, 1.0]
],
  "dcmmeta_reorient_transform": [
    [0.0, -1.0, 0.0, 63.0],
    [1.0, 0.0, 0.0, 0.0],
    [0.0, 0.0, 1.0, 0.0],
    [0.0, 0.0, 0.0, 1.0]
],
  "dcmmeta_shape": [64, 64, 30, 364],
  "dcmmeta_slice_dim": 2,
  "dcmmeta_version": 0.6,
  "global": {
    "const": {
      "AcquisitionMatrix": [0, 64, 64, 0],
      "AngioFlag": "N",
      "BitsAllocated": 16,
      "BitsStored": 12,
      "BodyPartExamined": "BRAIN",
      "Columns": 384,
      "EchoNumbers": 1,
      "EchoTime": 30.0,
      "EchoTrainLength": 64,
      "FlipAngle": 90.0,
      "HighBit": 11,
      "ImageOrientationPatient": [0.99470207477814, -0.1024342839549, 0.00866024842012, 0.10279246214814, 0.99209714036598, -0.0719511904222],
      "ImagePositionPatient": [-630.08926827808, -487.03623269144, -28.951293017151],
      "ImageType": [
        "ORIGINAL",
        "PRIMARY",
        "M",
        "ND",
        "MOSAIC"
],
      "ImagedNucleus": "1H",
      "ImagingFrequency": 123.200181,
      "InPlanePhaseEncodingDirection": "ROW",
      "MRAcquisitionType": "2D",
      "MagneticFieldStrength": 3.0,
      "Manufacturer": "SIEMENS",
      "ManufacturerModelName": "Skyra",
      "Modality": "MR",
      "NumberOfAverages": 1.0,
      "NumberOfPhaseEncodingSteps": 64,
      "PercentPhaseFieldOfView": 100.0,
      "PercentSampling": 100.0,
      "PerformedProcedureStepStartTime": "092743.689000",
      "PhotometricInterpretation": "MONOCHROME2",
      "PixelBandwidth": 1815.0,
      "PixelRepresentation": 0,
      "PixelSpacing": [3.0, 3.0],
      "ProtocolName": "EPI_DGIST_3",
      "RepetitionTime": 2000.0,
      "Rows": 384,
      "SAR": 0.12178405806178,
      "SamplesPerPixel": 1,
      "ScanOptions": "FS",
      "ScanningSequence": "EP",
      "SequenceName": "*epfid2d1_64",
      "SequenceVariant": "SK",
      "SeriesDescription": "EPI_DGIST_3",
      "SeriesNumber": 4,
      "SeriesTime": "100518.347000",
      "SliceLocation": -63.396234658235,
      "SliceThickness": 4.0,
      "SmallestImagePixelValue": 0,
      "SoftwareVersions": "syngo MR D13C",
      "SpacingBetweenSlices": 4.7999998377005,
      "SpecificCharacterSet": "ISO_IR 100",
      "StudyID": "1",
      "StudyTime": "092743.590000",
      "TimeOfLastCalibration": ["123723.000000", "123723.000000"],
      "TransmitCoilName": "Body",
      "VariableFlipAngleFlag": "N",
      "WindowCenterWidthExplanation": "Algo1",
      "dBdt": 0.0},
    "slices": {}
  },
  "time": {
    "samples": {
      "AcquisitionNumber": [1, 2, 3, 4, 5, 6, 7, 8, 9, 10, 11, 12, 13, 14, 15, 16, 17, 18, 19, 20, 21, 22, 23, 24, 25, 26, 27, 28, 29, 30, 31, 32, 33, 34, 35, 36, 37, 38, 39, 40, 41, 42, 43, 44, 45, 46, 47, 48, 49, 50, 51, 52, 53, 54, 55, 56, 57, 58, 59, 60, 61, 62, 63, 64, 65, 66, 67, 68, 69, 70, 71, 72, 73, 74, 75, 76, 77, 78, 79, 80, 81, 82, 83, 84, 85, 86, 87, 88, 89, 90, 91, 92, 93, 94, 95, 96, 97, 98, 99, 100, 101, 102, 103, 104, 105, 106, 107, 108, 109, 110, 111, 112, 113, 114, 115, 116, 117, 118, 119, 120, 121, 122, 123, 124, 125, 126, 127, 128, 129, 130, 131, 132, 133, 134, 135, 136, 137, 138, 139, 140, 141, 142, 143, 144, 145, 146, 147, 148, 149, 150, 151, 152, 153, 154, 155, 156, 157, 158, 159, 160, 161, 162, 163, 164, 165, 166, 167, 168, 169, 170, 171, 172, 173, 174, 175, 176, 177, 178, 179, 180, 181, 182, 183, 184, 185, 186, 187, 188, 189, 190, 191, 192, 193, 194, 195, 196, 197, 198, 199, 200, 201, 202, 203, 204, 205, 206, 207, 208, 209, 210, 211, 212, 213, 214, 215, 216, 217, 218, 219, 220, 221, 222, 223, 224, 225, 226, 227, 228, 229, 230, 231, 232, 233, 234, 235, 236, 237, 238, 239, 240, 241, 242, 243, 244, 245, 246, 247, 248, 249, 250, 251, 252, 253, 254, 255, 256, 257, 258, 259, 260, 261, 262, 263, 264, 265, 266, 267, 268, 269, 270, 271, 272, 273, 274, 275, 276, 277, 278, 279, 280, 281, 282, 283, 284, 285, 286, 287, 288, 289, 290, 291, 292, 293, 294, 295, 296, 297, 298, 299, 300, 301, 302, 303, 304, 305, 306, 307, 308, 309, 310, 311, 312, 313, 314, 315, 316, 317, 318, 319, 320, 321, 322, 323, 324, 325, 326, 327, 328, 329, 330, 331, 332, 333, 334, 335, 336, 337, 338, 339, 340, 341, 342, 343, 344, 345, 346, 347, 348, 349, 350, 351, 352, 353, 354, 355, 356, 357, 358, 359, 360, 361, 362, 363, 364],
      "AcquisitionTime": ["100432.280000", "100434.280000", "100436.280000", "100438.280000", "100440.280000", "100442.280000", "100444.280000", "100446.280000", "100448.280000", "100450.280000", "100452.280000", "100454.280000", "100456.280000", "100458.280000", "100500.280000", "100502.280000", "100504.280000", "100506.280000", "100508.280000", "100510.280000", "100512.280000", "100514.280000", "100516.280000", "100518.280000", "100520.280000", "100522.280000", "100524.280000", "100526.280000", "100528.280000", "100530.280000", "100532.280000", "100534.280000", "100536.280000", "100538.280000", "100540.280000", "100542.280000", "100544.280000", "100546.280000", "100548.280000", "100550.280000", "100552.280000", "100554.280000", "100556.280000", "100558.280000", "100600.280000", "100602.280000", "100604.280000", "100606.280000", "100608.280000", "100610.280000", "100612.280000", "100614.280000", "100616.280000", "100618.280000", "100620.280000", "100622.280000", "100624.280000", "100626.282500", "100628.282500", "100630.282500", "100632.282500", "100634.282500", "100636.282500", "100638.282500", "100640.282500", "100642.282500", "100644.282500", "100646.282500", "100648.282500", "100650.282500", "100652.282500", "100654.282500", "100656.282500", "100658.282500", "100700.282500", "100702.282500", "100704.282500", "100706.282500", "100708.282500", "100710.282500", "100712.282500", "100714.282500", "100716.282500", "100718.282500", "100720.282500", "100722.282500", "100724.282500", "100726.282500", "100728.282500", "100730.282500", "100732.282500", "100734.282500", "100736.282500", "100738.282500", "100740.282500", "100742.282500", "100744.282500", "100746.282500", "100748.282500", "100750.282500", "100752.282500", "100754.282500", "100756.282500", "100758.282500", "100800.282500", "100802.282500", "100804.282500", "100806.282500", "100808.282500", "100810.282500", "100812.282500", "100814.282500", "100816.282500", "100818.282500", "100820.282500", "100822.282500", "100824.282500", "100826.282500", "100828.282500", "100830.282500", "100832.282500", "100834.282500", "100836.282500", "100838.282500", "100840.282500", "100842.282500", "100844.282500", "100846.282500", "100848.282500", "100850.282500", "100852.282500", "100854.282500", "100856.282500", "100858.282500", "100900.282500", "100902.282500", "100904.282500", "100906.282500", "100908.282500", "100910.282500", "100912.282500", "100914.282500", "100916.282500", "100918.282500", "100920.282500", "100922.282500", "100924.282500", "100926.282500", "100928.282500", "100930.282500", "100932.282500", "100934.282500", "100936.282500", "100938.282500", "100940.282500", "100942.282500", "100944.282500", "100946.282500", "100948.282500", "100950.282500", "100952.282500", "100954.282500", "100956.282500", "100958.282500", "101000.282500", "101002.282500", "101004.282500", "101006.282500", "101008.282500", "101010.282500", "101012.282500", "101014.282500", "101016.282500", "101018.282500", "101020.282500", "101022.282500", "101024.282500", "101026.282500", "101028.282500", "101030.282500", "101032.282500", "101034.282500", "101036.282500", "101038.282500", "101040.282500", "101042.282500", "101044.282500", "101046.282500", "101048.282500", "101050.282500", "101052.282500", "101054.282500", "101056.282500", "101058.282500", "101100.282500", "101102.282500", "101104.282500", "101106.282500", "101108.282500", "101110.282500", "101112.282500", "101114.282500", "101116.282500", "101118.282500", "101120.282500", "101122.282500", "101124.282500", "101126.282500", "101128.282500", "101130.282500", "101132.282500", "101134.282500", "101136.282500", "101138.282500", "101140.282500", "101142.282500", "101144.282500", "101146.282500", "101148.282500", "101150.282500", "101152.282500", "101154.282500", "101156.282500", "101158.282500", "101200.282500", "101202.282500", "101204.282500", "101206.282500", "101208.282500", "101210.282500", "101212.282500", "101214.282500", "101216.282500", "101218.282500", "101220.282500", "101222.282500", "101224.282500", "101226.282500", "101228.282500", "101230.282500", "101232.282500", "101234.282500", "101236.282500", "101238.282500", "101240.282500", "101242.282500", "101244.282500", "101246.282500", "101248.282500", "101250.282500", "101252.282500", "101254.282500", "101256.282500", "101258.282500", "101300.282500", "101302.282500", "101304.282500", "101306.282500", "101308.282500", "101310.282500", "101312.282500", "101314.282500", "101316.282500", "101318.282500", "101320.282500", "101322.282500", "101324.282500", "101326.282500", "101328.282500", "101330.282500", "101332.282500", "101334.282500", "101336.282500", "101338.282500", "101340.282500", "101342.282500", "101344.282500", "101346.282500", "101348.282500", "101350.282500", "101352.282500", "101354.282500", "101356.282500", "101358.282500", "101400.282500", "101402.282500", "101404.282500", "101406.282500", "101408.282500", "101410.282500", "101412.282500", "101414.282500", "101416.282500", "101418.282500", "101420.282500", "101422.282500", "101424.282500", "101426.282500", "101428.282500", "101430.282500", "101432.282500", "101434.282500", "101436.282500", "101438.282500", "101440.282500", "101442.282500", "101444.282500", "101446.285000", "101448.285000", "101450.285000", "101452.285000", "101454.285000", "101456.285000", "101458.285000", "101500.285000", "101502.285000", "101504.285000", "101506.285000", "101508.285000", "101510.285000", "101512.285000", "101514.285000", "101516.285000", "101518.285000", "101520.285000", "101522.285000", "101524.285000", "101526.285000", "101528.285000", "101530.285000", "101532.285000", "101534.285000", "101536.285000", "101538.285000", "101540.285000", "101542.285000", "101544.285000", "101546.285000", "101548.285000", "101550.285000", "101552.285000", "101554.285000", "101556.285000", "101558.285000", "101600.285000", "101602.285000", "101604.285000", "101606.285000", "101608.285000", "101610.285000", "101612.285000", "101614.285000", "101616.285000", "101618.285000", "101620.285000", "101622.285000", "101624.285000", "101626.285000", "101628.285000", "101630.285000", "101632.285000", "101634.285000", "101636.285000", "101638.285000"],
      "ContentTime": ["100518.350000", "100518.353000", "100518.355000", "100518.357000", "100518.359000", "100518.361000", "100518.363000", "100518.365000", "100518.367000", "100518.369000", "100518.371000", "100518.373000", "100518.375000", "100518.377000", "100518.379000", "100518.381000", "100518.383000", "100518.385000", "100518.387000", "100518.389000", "100518.391000", "100518.393000", "100518.395000", "100558.345000", "100558.347000", "100558.350000", "100558.352000", "100558.354000", "100558.356000", "100558.357000", "100558.359000", "100558.361000", "100558.363000", "100558.365000", "100558.367000", "100558.369000", "100558.371000", "100558.373000", "100558.375000", "100558.377000", "100558.379000", "100558.381000", "100558.383000", "100638.344000", "100638.346000", "100638.348000", "100638.350000", "100638.352000", "100638.354000", "100638.356000", "100638.358000", "100638.360000", "100638.362000", "100638.364000", "100638.366000", "100638.368000", "100638.370000", "100638.372000", "100638.374000", "100638.376000", "100638.378000", "100638.380000", "100638.382000", "100718.345000", "100718.347000", "100718.349000", "100718.351000", "100718.353000", "100718.355000", "100718.357000", "100718.359000", "100718.361000", "100718.363000", "100718.365000", "100718.367000", "100718.369000", "100718.371000", "100718.373000", "100718.375000", "100718.377000", "100718.379000", "100718.381000", "100718.383000", "100758.345000", "100758.347000", "100758.349000", "100758.354000", "100758.356000", "100758.358000", "100758.360000", "100758.362000", "100758.364000", "100758.366000", "100758.368000", "100758.370000", "100758.372000", "100758.379000", "100758.381000", "100758.383000", "100758.384000", "100758.386000", "100758.388000", "100758.390000", "100838.344000", "100838.346000", "100838.348000", "100838.350000", "100838.352000", "100838.354000", "100838.356000", "100838.358000", "100838.360000", "100838.362000", "100838.364000", "100838.366000", "100838.368000", "100838.370000", "100838.372000", "100838.374000", "100838.376000", "100838.378000", "100838.380000", "100838.382000", "100918.345000", "100918.350000", "100918.352000", "100918.354000", "100918.367000", "100918.369000", "100918.371000", "100918.373000", "100918.375000", "100918.377000", "100918.378000", "100918.380000", "100918.382000", "100918.384000", "100918.386000", "100918.388000", "100918.390000", "100918.392000", "100918.394000", "100918.396000", "100958.345000", "100958.347000", "100958.349000", "100958.351000", "100958.353000", "100958.355000", "100958.357000", "100958.359000", "100958.361000", "100958.363000", "100958.365000", "100958.367000", "100958.369000", "100958.371000", "100958.373000", "100958.375000", "100958.377000", "100958.379000", "100958.381000", "100958.383000", "101038.345000", "101038.347000", "101038.349000", "101038.351000", "101038.353000", "101038.355000", "101038.357000", "101038.359000", "101038.361000", "101038.363000", "101038.365000", "101038.367000", "101038.369000", "101038.371000", "101038.373000", "101038.375000", "101038.377000", "101038.379000", "101038.381000", "101038.383000", "101118.345000", "101118.348000", "101118.350000", "101118.351000", "101118.353000", "101118.364000", "101118.366000", "101118.368000", "101118.370000", "101118.372000", "101118.374000", "101118.376000", "101118.378000", "101118.380000", "101118.382000", "101118.383000", "101118.385000", "101118.387000", "101118.389000", "101118.391000", "101158.345000", "101158.347000", "101158.349000", "101158.351000", "101158.353000", "101158.356000", "101158.357000", "101158.359000", "101158.361000", "101158.363000", "101158.366000", "101158.367000", "101158.369000", "101158.371000", "101158.373000", "101158.375000", "101158.377000", "101158.379000", "101158.381000", "101158.383000", "101238.345000", "101238.347000", "101238.349000", "101238.351000", "101238.353000", "101238.355000", "101238.357000", "101238.359000", "101238.361000", "101238.363000", "101238.365000", "101238.367000", "101238.369000", "101238.371000", "101238.373000", "101238.375000", "101238.377000", "101238.379000", "101238.381000", "101238.383000", "101318.344000", "101318.346000", "101318.348000", "101318.350000", "101318.352000", "101318.354000", "101318.356000", "101318.358000", "101318.360000", "101318.362000", "101318.364000", "101318.366000", "101318.368000", "101318.370000", "101318.372000", "101318.374000", "101318.376000", "101318.378000", "101318.380000", "101318.382000", "101358.345000", "101358.347000", "101358.349000", "101358.351000", "101358.353000", "101358.355000", "101358.357000", "101358.359000", "101358.361000", "101358.363000", "101358.365000", "101358.367000", "101358.369000", "101358.371000", "101358.373000", "101358.375000", "101358.377000", "101358.379000", "101358.381000", "101358.383000", "101438.345000", "101438.347000", "101438.349000", "101438.351000", "101438.353000", "101438.355000", "101438.357000", "101438.359000", "101438.361000", "101438.363000", "101438.365000", "101438.367000", "101438.369000", "101438.371000", "101438.373000", "101438.375000", "101438.377000", "101438.379000", "101438.381000", "101438.383000", "101518.344000", "101518.346000", "101518.348000", "101518.350000", "101518.352000", "101518.354000", "101518.356000", "101518.358000", "101518.360000", "101518.362000", "101518.364000", "101518.366000", "101518.368000", "101518.370000", "101518.372000", "101518.374000", "101518.376000", "101518.378000", "101518.380000", "101518.382000", "101558.345000", "101558.347000", "101558.349000", "101558.351000", "101558.353000", "101558.355000", "101558.357000", "101558.359000", "101558.361000", "101558.363000", "101558.365000", "101558.367000", "101558.369000", "101558.371000", "101558.373000", "101558.375000", "101558.377000", "101558.379000", "101558.381000", "101558.383000", "101638.345000", "101638.347000", "101638.349000", "101638.351000", "101638.353000", "101638.355000", "101638.357000", "101638.359000", "101638.361000", "101638.363000", "101638.365000", "101638.367000", "101638.369000", "101638.371000", "101638.373000", "101638.375000", "101638.377000", "101638.379000", "101638.381000", "101638.383000", "101639.497000"],
      "InstanceCreationTime": ["100518.350000", "100518.353000", "100518.355000", "100518.357000", "100518.359000", "100518.361000", "100518.363000", "100518.365000", "100518.367000", "100518.369000", "100518.371000", "100518.373000", "100518.375000", "100518.377000", "100518.379000", "100518.381000", "100518.383000", "100518.385000", "100518.387000", "100518.389000", "100518.391000", "100518.393000", "100518.395000", "100558.345000", "100558.347000", "100558.350000", "100558.352000", "100558.354000", "100558.356000", "100558.357000", "100558.359000", "100558.361000", "100558.363000", "100558.365000", "100558.367000", "100558.369000", "100558.371000", "100558.373000", "100558.375000", "100558.377000", "100558.379000", "100558.381000", "100558.383000", "100638.344000", "100638.346000", "100638.348000", "100638.350000", "100638.352000", "100638.354000", "100638.356000", "100638.358000", "100638.360000", "100638.362000", "100638.364000", "100638.366000", "100638.368000", "100638.370000", "100638.372000", "100638.374000", "100638.376000", "100638.378000", "100638.380000", "100638.382000", "100718.345000", "100718.347000", "100718.349000", "100718.351000", "100718.353000", "100718.355000", "100718.357000", "100718.359000", "100718.361000", "100718.363000", "100718.365000", "100718.367000", "100718.369000", "100718.371000", "100718.373000", "100718.375000", "100718.377000", "100718.379000", "100718.381000", "100718.383000", "100758.345000", "100758.347000", "100758.349000", "100758.354000", "100758.356000", "100758.358000", "100758.360000", "100758.362000", "100758.364000", "100758.366000", "100758.368000", "100758.370000", "100758.372000", "100758.379000", "100758.381000", "100758.383000", "100758.384000", "100758.386000", "100758.388000", "100758.390000", "100838.344000", "100838.346000", "100838.348000", "100838.350000", "100838.352000", "100838.354000", "100838.356000", "100838.358000", "100838.360000", "100838.362000", "100838.364000", "100838.366000", "100838.368000", "100838.370000", "100838.372000", "100838.374000", "100838.376000", "100838.378000", "100838.380000", "100838.382000", "100918.345000", "100918.350000", "100918.352000", "100918.354000", "100918.367000", "100918.369000", "100918.371000", "100918.373000", "100918.375000", "100918.377000", "100918.378000", "100918.380000", "100918.382000", "100918.384000", "100918.386000", "100918.388000", "100918.390000", "100918.392000", "100918.394000", "100918.396000", "100958.345000", "100958.347000", "100958.349000", "100958.351000", "100958.353000", "100958.355000", "100958.357000", "100958.359000", "100958.361000", "100958.363000", "100958.365000", "100958.367000", "100958.369000", "100958.371000", "100958.373000", "100958.375000", "100958.377000", "100958.379000", "100958.381000", "100958.383000", "101038.345000", "101038.347000", "101038.349000", "101038.351000", "101038.353000", "101038.355000", "101038.357000", "101038.359000", "101038.361000", "101038.363000", "101038.365000", "101038.367000", "101038.369000", "101038.371000", "101038.373000", "101038.375000", "101038.377000", "101038.379000", "101038.381000", "101038.383000", "101118.345000", "101118.348000", "101118.350000", "101118.351000", "101118.353000", "101118.364000", "101118.366000", "101118.368000", "101118.370000", "101118.372000", "101118.374000", "101118.376000", "101118.378000", "101118.380000", "101118.382000", "101118.383000", "101118.385000", "101118.387000", "101118.389000", "101118.391000", "101158.345000", "101158.347000", "101158.349000", "101158.351000", "101158.353000", "101158.356000", "101158.357000", "101158.359000", "101158.361000", "101158.363000", "101158.366000", "101158.367000", "101158.369000", "101158.371000", "101158.373000", "101158.375000", "101158.377000", "101158.379000", "101158.381000", "101158.383000", "101238.345000", "101238.347000", "101238.349000", "101238.351000", "101238.353000", "101238.355000", "101238.357000", "101238.359000", "101238.361000", "101238.363000", "101238.365000", "101238.367000", "101238.369000", "101238.371000", "101238.373000", "101238.375000", "101238.377000", "101238.379000", "101238.381000", "101238.383000", "101318.344000", "101318.346000", "101318.348000", "101318.350000", "101318.352000", "101318.354000", "101318.356000", "101318.358000", "101318.360000", "101318.362000", "101318.364000", "101318.366000", "101318.368000", "101318.370000", "101318.372000", "101318.374000", "101318.376000", "101318.378000", "101318.380000", "101318.382000", "101358.345000", "101358.347000", "101358.349000", "101358.351000", "101358.353000", "101358.355000", "101358.357000", "101358.359000", "101358.361000", "101358.363000", "101358.365000", "101358.367000", "101358.369000", "101358.371000", "101358.373000", "101358.375000", "101358.377000", "101358.379000", "101358.381000", "101358.383000", "101438.345000", "101438.347000", "101438.349000", "101438.351000", "101438.353000", "101438.355000", "101438.357000", "101438.359000", "101438.361000", "101438.363000", "101438.365000", "101438.367000", "101438.369000", "101438.371000", "101438.373000", "101438.375000", "101438.377000", "101438.379000", "101438.381000", "101438.383000", "101518.344000", "101518.346000", "101518.348000", "101518.350000", "101518.352000", "101518.354000", "101518.356000", "101518.358000", "101518.360000", "101518.362000", "101518.364000", "101518.366000", "101518.368000", "101518.370000", "101518.372000", "101518.374000", "101518.376000", "101518.378000", "101518.380000", "101518.382000", "101558.345000", "101558.347000", "101558.349000", "101558.351000", "101558.353000", "101558.355000", "101558.357000", "101558.359000", "101558.361000", "101558.363000", "101558.365000", "101558.367000", "101558.369000", "101558.371000", "101558.373000", "101558.375000", "101558.377000", "101558.379000", "101558.381000", "101558.383000", "101638.345000", "101638.347000", "101638.349000", "101638.351000", "101638.353000", "101638.355000", "101638.357000", "101638.359000", "101638.361000", "101638.363000", "101638.365000", "101638.367000", "101638.369000", "101638.371000", "101638.373000", "101638.375000", "101638.377000", "101638.379000", "101638.381000", "101638.383000", "101639.497000"],
      "InstanceNumber": [1, 2, 3, 4, 5, 6, 7, 8, 9, 10, 11, 12, 13, 14, 15, 16, 17, 18, 19, 20, 21, 22, 23, 24, 25, 26, 27, 28, 29, 30, 31, 32, 33, 34, 35, 36, 37, 38, 39, 40, 41, 42, 43, 44, 45, 46, 47, 48, 49, 50, 51, 52, 53, 54, 55, 56, 57, 58, 59, 60, 61, 62, 63, 64, 65, 66, 67, 68, 69, 70, 71, 72, 73, 74, 75, 76, 77, 78, 79, 80, 81, 82, 83, 84, 85, 86, 87, 88, 89, 90, 91, 92, 93, 94, 95, 96, 97, 98, 99, 100, 101, 102, 103, 104, 105, 106, 107, 108, 109, 110, 111, 112, 113, 114, 115, 116, 117, 118, 119, 120, 121, 122, 123, 124, 125, 126, 127, 128, 129, 130, 131, 132, 133, 134, 135, 136, 137, 138, 139, 140, 141, 142, 143, 144, 145, 146, 147, 148, 149, 150, 151, 152, 153, 154, 155, 156, 157, 158, 159, 160, 161, 162, 163, 164, 165, 166, 167, 168, 169, 170, 171, 172, 173, 174, 175, 176, 177, 178, 179, 180, 181, 182, 183, 184, 185, 186, 187, 188, 189, 190, 191, 192, 193, 194, 195, 196, 197, 198, 199, 200, 201, 202, 203, 204, 205, 206, 207, 208, 209, 210, 211, 212, 213, 214, 215, 216, 217, 218, 219, 220, 221, 222, 223, 224, 225, 226, 227, 228, 229, 230, 231, 232, 233, 234, 235, 236, 237, 238, 239, 240, 241, 242, 243, 244, 245, 246, 247, 248, 249, 250, 251, 252, 253, 254, 255, 256, 257, 258, 259, 260, 261, 262, 263, 264, 265, 266, 267, 268, 269, 270, 271, 272, 273, 274, 275, 276, 277, 278, 279, 280, 281, 282, 283, 284, 285, 286, 287, 288, 289, 290, 291, 292, 293, 294, 295, 296, 297, 298, 299, 300, 301, 302, 303, 304, 305, 306, 307, 308, 309, 310, 311, 312, 313, 314, 315, 316, 317, 318, 319, 320, 321, 322, 323, 324, 325, 326, 327, 328, 329, 330, 331, 332, 333, 334, 335, 336, 337, 338, 339, 340, 341, 342, 343, 344, 345, 346, 347, 348, 349, 350, 351, 352, 353, 354, 355, 356, 357, 358, 359, 360, 361, 362, 363, 364],
      "LargestImagePixelValue": [2817, 2750, 2724, 2720, 2712, 2698, 2710, 2699, 2715, 2715, 2718, 2716, 2707, 2713, 2715, 2710, 2712, 2703, 2701, 2695, 2696, 2709, 2704, 2707, 2699, 2696, 2707, 2678, 2687, 2706, 2703, 2699, 2700, 2711, 2686, 2704, 2712, 2708, 2716, 2708, 2705, 2699, 2701, 2707, 2700, 2684, 2698, 2706, 2693, 2691, 2691, 2699, 2704, 2703, 2711, 2703, 2710, 2699, 2692, 2685, 2699, 2700, 2696, 2697, 2684, 2675, 2689, 2698, 2702, 2688, 2687, 2688, 2705, 2700, 2698, 2701, 2698, 2700, 2696, 2679, 2670, 2684, 2665, 2684, 2686, 2684, 2686, 2681, 2677, 2686, 2663, 2682, 2709, 2687, 2685, 2692, 2689, 2662, 2675, 2684, 2677, 2675, 2671, 2669, 2676, 2677, 2685, 2690, 2678, 2667, 2684, 2699, 2677, 2684, 2687, 2695, 2683, 2685, 2696, 2688, 2685, 2680, 2685, 2670, 2677, 2676, 2674, 2685, 2686, 2683, 2694, 2674, 2673, 2666, 2671, 2664, 2678, 2680, 2680, 2682, 2678, 2684, 2666, 2676, 2680, 2663, 2675, 2674, 2665, 2672, 2689, 2676, 2683, 2678, 2686, 2671, 2677, 2688, 2692, 2679, 2674, 2672, 2687, 2667, 2670, 2674, 2680, 2675, 2670, 2679, 2680, 2660, 2678, 2683, 2687, 2685, 2677, 2680, 2674, 2679, 2730, 2678, 2682, 2666, 2666, 2689, 2678, 2658, 2668, 2663, 2670, 2682, 2684, 2664, 2671, 2678, 2696, 2697, 2676, 2691, 2682, 2694, 2679, 2677, 2687, 2669, 2687, 2677, 2691, 2696, 2691, 2693, 2692, 2694, 2697, 2696, 2684, 2692, 2690, 2689, 2688, 2691, 2691, 2683, 2677, 2684, 2697, 2683, 2689, 2693, 2694, 2691, 2679, 2691, 2683, 2698, 2691, 2697, 2679, 2688, 2692, 2682, 2666, 2672, 2669, 2672, 2670, 2653, 2675, 2666, 2651, 2671, 2662, 2666, 2672, 2663, 2666, 2667, 2673, 2673, 2690, 2660, 2718, 2671, 2690, 2684, 2687, 2676, 2680, 2677, 2685, 2690, 2693, 2696, 2698, 2708, 2684, 2689, 2700, 2676, 2689, 2693, 2687, 2689, 2684, 2676, 2684, 2683, 2690, 2683, 2665, 2670, 2684, 2657, 2677, 2676, 2683, 2669, 2667, 2678, 2678, 2673, 2662, 2679, 2681, 2682, 2666, 2690, 2668, 2675, 2669, 2674, 2673, 2659, 2671, 2663, 2665, 2673, 2677, 2686, 2658, 2682, 2679, 2685, 2707, 2691, 2687, 2687, 2701, 2676, 2679, 2671, 2684, 2680, 2674, 2681, 2679, 2679, 2669, 2668, 2679, 2684, 2687, 2659, 2672, 2677, 2676, 2661, 2646, 2659, 2648, 2660, 2672, 2647, 2655, 2661, 2668, 2669, 2670, 2650, 2658, 2668, 2654, 2671],
