{
  "AcquisitionMatrixPE": 64,
  "AcquisitionNumber": 1,
  "AcquisitionTime": "09:31:48.712500",
  "BandwidthPerPixelPhaseEncode": 25.202,
  "BaseResolution": 64,
  "BodyPartExamined": "BRAIN",
  "ConsistencyInfo": "N4_VD13C_LATEST_20121124",
  "ConversionSoftware": "dcm2niix",
  "ConversionSoftwareVersion": "v1.0.20201102",
  "DerivedVendorReportedEchoSpacing": 0.00061999,
  "DeviceSerialNumber": "45758",
  "DwellTime": 4.3e-06,
  "EchoTime": 0.03,
  "EchoTrainLength": 64,
  "EffectiveEchoSpacing": 0.00061999,
  "FlipAngle": 90,
  "ImageOrientationPatientDICOM": [0.994702, -0.102434, 0.00866025, 0.102792, 0.992097, -0.0719512],
  "ImageType": [
    "ORIGINAL",
    "PRIMARY",
    "M",
    "ND",
    "MOSAIC"
],
  "ImagingFrequency": 123.2,
  "InPlanePhaseEncodingDirectionDICOM": "ROW",
  "InstitutionAddress": "Street StreetNo,City /652E4B/,District,KR,ZIP",
  "InstitutionName": "DGMIF",
  "InstitutionalDepartmentName": "Department",
  "MRAcquisitionType": "2D",
  "MagneticFieldStrength": 3,
  "Manufacturer": "Siemens",
  "ManufacturersModelName": "Skyra",
  "Modality": "MR",
  "PartialFourier": 1,
  "PatientPosition": "HFS",
  "PercentPhaseFOV": 100,
  "PercentSampling": 100,
  "PhaseEncodingDirection": "i",
  "PhaseEncodingSteps": 64,
  "PhaseResolution": 1,
  "PixelBandwidth": 1815,
  "ProcedureStepDescription": "DGMIF^DGIST_Jeon",
  "ProtocolName": "EPI_DGIST_1",
  "PulseSequenceDetails": "%SiemensSeq%\\ep2d_bold",
  "ReceiveCoilActiveElements": "HC1-7",
  "ReceiveCoilName": "HeadNeck_64",
  "ReconMatrixPE": 64,
  "RepetitionTime": 2,
  "SAR": 0.121784,
  "ScanOptions": "FS",
  "ScanningSequence": "EP",
  "SequenceName": "*epfid2d1_64",
  "SequenceVariant": "SK",
  "SeriesDescription": "EPI_DGIST_1",
  "SeriesNumber": 2,
  "ShimSetting": [-9729, -13721, -8190, 224, -270, -353, -168, -84],
  "SliceThickness": 4,
  "SliceTiming": [0.99, 0, 1.055, 0.065, 1.1225, 0.1325, 1.1875, 0.1975, 1.255, 0.265, 1.32, 0.33, 1.385, 0.395, 1.4525, 0.4625, 1.5175, 0.5275, 1.585, 0.595, 1.65, 0.66, 1.715, 0.725, 1.7825, 0.7925, 1.8475, 0.8575, 1.9125, 0.925],
  "SoftwareVersions": "syngo MR D13C",
  "SpacingBetweenSlices": 4.8,
  "StationName": "AWP45758",
  "TaskName": "asrt",
  "TotalReadoutTime": 0.0390594,
  "TxRefAmp": 331.678,
  "dcmmeta_affine": [
    [-2.9841063022613525, 0.30837735533714294, 0.005863388534635305, 83.8641128540039],
    [0.3073028326034546, 2.9762914180755615, -0.34780898690223694, -127.50830078125],
    [0.025980744510889053, 0.21585357189178467, 4.787378311157227, -72.92971801757812],
    [0.0, 0.0, 0.0, 1.0]
],
  "dcmmeta_reorient_transform": [
    [0.0, -1.0, 0.0, 63.0],
    [1.0, 0.0, 0.0, 0.0],
    [0.0, 0.0, 1.0, 0.0],
    [0.0, 0.0, 0.0, 1.0]
],
  "dcmmeta_shape": [64, 64, 30, 514],
  "dcmmeta_slice_dim": 2,
  "dcmmeta_version": 0.6,
  "global": {
    "const": {
      "AcquisitionMatrix": [0, 64, 64, 0],
      "AngioFlag": "N",
      "BitsAllocated": 16,
      "BitsStored": 12,
      "BodyPartExamined": "BRAIN",
      "Columns": 384,
      "EchoNumbers": 1,
      "EchoTime": 30.0,
      "EchoTrainLength": 64,
      "FlipAngle": 90.0,
      "HighBit": 11,
      "ImageOrientationPatient": [0.99470207554216, -0.1024342765584, 0.00866024815391, 0.10279245475169, 0.992097141129, -0.0719511904682],
      "ImagePositionPatient": [-630.0892644578, -487.03623739138, -28.951292837321],
      "ImageType": [
        "ORIGINAL",
        "PRIMARY",
        "M",
        "ND",
        "MOSAIC"
],
      "ImagedNucleus": "1H",
      "ImagingFrequency": 123.200113,
      "InPlanePhaseEncodingDirection": "ROW",
      "MRAcquisitionType": "2D",
      "MagneticFieldStrength": 3.0,
      "Manufacturer": "SIEMENS",
      "ManufacturerModelName": "Skyra",
      "Modality": "MR",
      "NumberOfAverages": 1.0,
      "NumberOfPhaseEncodingSteps": 64,
      "PercentPhaseFieldOfView": 100.0,
      "PercentSampling": 100.0,
      "PerformedProcedureStepStartTime": "092743.689000",
      "PhotometricInterpretation": "MONOCHROME2",
      "PixelBandwidth": 1815.0,
      "PixelRepresentation": 0,
      "PixelSpacing": [3.0, 3.0],
      "ProtocolName": "EPI_DGIST_1",
      "RepetitionTime": 2000.0,
      "Rows": 384,
      "SAR": 0.12178405806178,
      "SamplesPerPixel": 1,
      "ScanOptions": "FS",
      "ScanningSequence": "EP",
      "SequenceName": "*epfid2d1_64",
      "SequenceVariant": "SK",
      "SeriesDescription": "EPI_DGIST_1",
      "SeriesNumber": 2,
      "SeriesTime": "093151.923000",
      "SliceLocation": -63.39623465849,
      "SliceThickness": 4.0,
      "SmallestImagePixelValue": 0,
      "SoftwareVersions": "syngo MR D13C",
      "SpacingBetweenSlices": 4.7999998377005,
      "SpecificCharacterSet": "ISO_IR 100",
      "StudyID": "1",
      "StudyTime": "092743.590000",
      "TimeOfLastCalibration": ["123723.000000", "123723.000000"],
      "TransmitCoilName": "Body",
      "VariableFlipAngleFlag": "N",
      "WindowCenterWidthExplanation": "Algo1",
      "dBdt": 0.0},
    "slices": {}
  },
  "time": {
    "samples": {
      "AcquisitionNumber": [1, 2, 3, 4, 5, 6, 7, 8, 9, 10, 11, 12, 13, 14, 15, 16, 17, 18, 19, 20, 21, 22, 23, 24, 25, 26, 27, 28, 29, 30, 31, 32, 33, 34, 35, 36, 37, 38, 39, 40, 41, 42, 43, 44, 45, 46, 47, 48, 49, 50, 51, 52, 53, 54, 55, 56, 57, 58, 59, 60, 61, 62, 63, 64, 65, 66, 67, 68, 69, 70, 71, 72, 73, 74, 75, 76, 77, 78, 79, 80, 81, 82, 83, 84, 85, 86, 87, 88, 89, 90, 91, 92, 93, 94, 95, 96, 97, 98, 99, 100, 101, 102, 103, 104, 105, 106, 107, 108, 109, 110, 111, 112, 113, 114, 115, 116, 117, 118, 119, 120, 121, 122, 123, 124, 125, 126, 127, 128, 129, 130, 131, 132, 133, 134, 135, 136, 137, 138, 139, 140, 141, 142, 143, 144, 145, 146, 147, 148, 149, 150, 151, 152, 153, 154, 155, 156, 157, 158, 159, 160, 161, 162, 163, 164, 165, 166, 167, 168, 169, 170, 171, 172, 173, 174, 175, 176, 177, 178, 179, 180, 181, 182, 183, 184, 185, 186, 187, 188, 189, 190, 191, 192, 193, 194, 195, 196, 197, 198, 199, 200, 201, 202, 203, 204, 205, 206, 207, 208, 209, 210, 211, 212, 213, 214, 215, 216, 217, 218, 219, 220, 221, 222, 223, 224, 225, 226, 227, 228, 229, 230, 231, 232, 233, 234, 235, 236, 237, 238, 239, 240, 241, 242, 243, 244, 245, 246, 247, 248, 249, 250, 251, 252, 253, 254, 255, 256, 257, 258, 259, 260, 261, 262, 263, 264, 265, 266, 267, 268, 269, 270, 271, 272, 273, 274, 275, 276, 277, 278, 279, 280, 281, 282, 283, 284, 285, 286, 287, 288, 289, 290, 291, 292, 293, 294, 295, 296, 297, 298, 299, 300, 301, 302, 303, 304, 305, 306, 307, 308, 309, 310, 311, 312, 313, 314, 315, 316, 317, 318, 319, 320, 321, 322, 323, 324, 325, 326, 327, 328, 329, 330, 331, 332, 333, 334, 335, 336, 337, 338, 339, 340, 341, 342, 343, 344, 345, 346, 347, 348, 349, 350, 351, 352, 353, 354, 355, 356, 357, 358, 359, 360, 361, 362, 363, 364, 365, 366, 367, 368, 369, 370, 371, 372, 373, 374, 375, 376, 377, 378, 379, 380, 381, 382, 383, 384, 385, 386, 387, 388, 389, 390, 391, 392, 393, 394, 395, 396, 397, 398, 399, 400, 401, 402, 403, 404, 405, 406, 407, 408, 409, 410, 411, 412, 413, 414, 415, 416, 417, 418, 419, 420, 421, 422, 423, 424, 425, 426, 427, 428, 429, 430, 431, 432, 433, 434, 435, 436, 437, 438, 439, 440, 441, 442, 443, 444, 445, 446, 447, 448, 449, 450, 451, 452, 453, 454, 455, 456, 457, 458, 459, 460, 461, 462, 463, 464, 465, 466, 467, 468, 469, 470, 471, 472, 473, 474, 475, 476, 477, 478, 479, 480, 481, 482, 483, 484, 485, 486, 487, 488, 489, 490, 491, 492, 493, 494, 495, 496, 497, 498, 499, 500, 501, 502, 503, 504, 505, 506, 507, 508, 509, 510, 511, 512, 513, 514],
      "AcquisitionTime": ["093148.712500", "093150.712500", "093152.712500", "093154.712500", "093156.712500", "093158.712500", "093200.712500", "093202.712500", "093204.712500", "093206.712500", "093208.712500", "093210.712500", "093212.712500", "093214.712500", "093216.712500", "093218.712500", "093220.712500", "093222.712500", "093224.712500", "093226.712500", "093228.712500", "093230.712500", "093232.712500", "093234.712500", "093236.712500", "093238.712500", "093240.712500", "093242.712500", "093244.712500", "093246.712500", "093248.712500", "093250.712500", "093252.712500", "093254.712500", "093256.712500", "093258.712500", "093300.712500", "093302.712500", "093304.712500", "093306.712500", "093308.712500", "093310.712500", "093312.712500", "093314.712500", "093316.712500", "093318.712500", "093320.712500", "093322.712500", "093324.712500", "093326.712500", "093328.712500", "093330.712500", "093332.712500", "093334.712500", "093336.712500", "093338.712500", "093340.712500", "093342.712500", "093344.712500", "093346.712500", "093348.712500", "093350.712500", "093352.712500", "093354.712500", "093356.712500", "093358.712500", "093400.712500", "093402.712500", "093404.712500", "093406.712500", "093408.712500", "093410.712500", "093412.712500", "093414.712500", "093416.712500", "093418.712500", "093420.712500", "093422.712500", "093424.712500", "093426.712500", "093428.712500", "093430.712500", "093432.712500", "093434.712500", "093436.712500", "093438.712500", "093440.712500", "093442.712500", "093444.712500", "093446.712500", "093448.712500", "093450.712500", "093452.712500", "093454.712500", "093456.712500", "093458.712500", "093500.712500", "093502.712500", "093504.712500", "093506.712500", "093508.712500", "093510.712500", "093512.712500", "093514.712500", "093516.712500", "093518.712500", "093520.712500", "093522.712500", "093524.712500", "093526.712500", "093528.712500", "093530.712500", "093532.712500", "093534.712500", "093536.712500", "093538.712500", "093540.712500", "093542.712500", "093544.712500", "093546.712500", "093548.712500", "093550.712500", "093552.712500", "093554.712500", "093556.712500", "093558.712500", "093600.712500", "093602.712500", "093604.712500", "093606.712500", "093608.712500", "093610.712500", "093612.712500", "093614.712500", "093616.712500", "093618.712500", "093620.712500", "093622.712500", "093624.712500", "093626.712500", "093628.712500", "093630.715000", "093632.715000", "093634.715000", "093636.715000", "093638.715000", "093640.715000", "093642.715000", "093644.715000", "093646.715000", "093648.715000", "093650.715000", "093652.715000", "093654.715000", "093656.715000", "093658.715000", "093700.715000", "093702.715000", "093704.715000", "093706.715000", "093708.715000", "093710.715000", "093712.715000", "093714.715000", "093716.715000", "093718.715000", "093720.715000", "093722.715000", "093724.715000", "093726.715000", "093728.715000", "093730.715000", "093732.715000", "093734.715000", "093736.715000", "093738.715000", "093740.715000", "093742.715000", "093744.715000", "093746.715000", "093748.715000", "093750.715000", "093752.715000", "093754.715000", "093756.715000", "093758.715000", "093800.715000", "093802.715000", "093804.715000", "093806.715000", "093808.715000", "093810.715000", "093812.715000", "093814.715000", "093816.715000", "093818.715000", "093820.715000", "093822.715000", "093824.715000", "093826.715000", "093828.715000", "093830.715000", "093832.715000", "093834.715000", "093836.715000", "093838.715000", "093840.715000", "093842.715000", "093844.715000", "093846.715000", "093848.715000", "093850.715000", "093852.715000", "093854.715000", "093856.715000", "093858.715000", "093900.715000", "093902.715000", "093904.715000", "093906.715000", "093908.715000", "093910.715000", "093912.715000", "093914.715000", "093916.715000", "093918.715000", "093920.715000", "093922.715000", "093924.715000", "093926.715000", "093928.715000", "093930.715000", "093932.715000", "093934.715000", "093936.715000", "093938.715000", "093940.715000", "093942.715000", "093944.715000", "093946.715000", "093948.715000", "093950.715000", "093952.715000", "093954.715000", "093956.715000", "093958.715000", "094000.715000", "094002.715000", "094004.715000", "094006.715000", "094008.715000", "094010.715000", "094012.715000", "094014.715000", "094016.715000", "094018.715000", "094020.715000", "094022.715000", "094024.715000", "094026.715000", "094028.715000", "094030.715000", "094032.715000", "094034.715000", "094036.715000", "094038.715000", "094040.715000", "094042.715000", "094044.715000", "094046.715000", "094048.715000", "094050.715000", "094052.715000", "094054.715000", "094056.715000", "094058.715000", "094100.715000", "094102.715000", "094104.715000", "094106.715000", "094108.715000", "094110.715000", "094112.715000", "094114.715000", "094116.715000", "094118.715000", "094120.715000", "094122.715000", "094124.715000", "094126.715000", "094128.715000", "094130.715000", "094132.715000", "094134.715000", "094136.715000", "094138.715000", "094140.715000", "094142.715000", "094144.715000", "094146.715000", "094148.715000", "094150.715000", "094152.715000", "094154.715000", "094156.715000", "094158.715000", "094200.715000", "094202.715000", "094204.715000", "094206.715000", "094208.715000", "094210.715000", "094212.715000", "094214.715000", "094216.715000", "094218.715000", "094220.715000", "094222.715000", "094224.715000", "094226.715000", "094228.715000", "094230.715000", "094232.715000", "094234.715000", "094236.715000", "094238.715000", "094240.715000", "094242.715000", "094244.715000", "094246.715000", "094248.715000", "094250.715000", "094252.715000", "094254.715000", "094256.715000", "094258.715000", "094300.715000", "094302.715000", "094304.715000", "094306.715000", "094308.715000", "094310.715000", "094312.715000", "094314.715000", "094316.715000", "094318.715000", "094320.715000", "094322.715000", "094324.715000", "094326.715000", "094328.715000", "094330.715000", "094332.715000", "094334.715000", "094336.715000", "094338.715000", "094340.715000", "094342.715000", "094344.715000", "094346.715000", "094348.715000", "094350.715000", "094352.715000", "094354.715000", "094356.715000", "094358.715000", "094400.715000", "094402.715000", "094404.715000", "094406.715000", "094408.715000", "094410.715000", "094412.715000", "094414.715000", "094416.715000", "094418.715000", "094420.715000", "094422.715000", "094424.715000", "094426.715000", "094428.715000", "094430.715000", "094432.715000", "094434.715000", "094436.715000", "094438.715000", "094440.715000", "094442.715000", "094444.715000", "094446.715000", "094448.715000", "094450.717500", "094452.717500", "094454.717500", "094456.717500", "094458.717500", "094500.717500", "094502.717500", "094504.717500", "094506.717500", "094508.717500", "094510.717500", "094512.717500", "094514.717500", "094516.717500", "094518.717500", "094520.717500", "094522.717500", "094524.717500", "094526.717500", "094528.717500", "094530.717500", "094532.717500", "094534.717500", "094536.717500", "094538.717500", "094540.717500", "094542.717500", "094544.717500", "094546.717500", "094548.717500", "094550.717500", "094552.717500", "094554.717500", "094556.717500", "094558.717500", "094600.717500", "094602.717500", "094604.717500", "094606.717500", "094608.717500", "094610.717500", "094612.717500", "094614.717500", "094616.717500", "094618.717500", "094620.717500", "094622.717500", "094624.717500", "094626.717500", "094628.717500", "094630.717500", "094632.717500", "094634.717500", "094636.717500", "094638.717500", "094640.717500", "094642.717500", "094644.717500", "094646.717500", "094648.717500", "094650.717500", "094652.717500", "094654.717500", "094656.717500", "094658.717500", "094700.717500", "094702.717500", "094704.717500", "094706.717500", "094708.717500", "094710.717500", "094712.717500", "094714.717500", "094716.717500", "094718.717500", "094720.717500", "094722.717500", "094724.717500", "094726.717500", "094728.717500", "094730.717500", "094732.717500", "094734.717500", "094736.717500", "094738.717500", "094740.717500", "094742.717500", "094744.717500", "094746.717500", "094748.717500", "094750.717500", "094752.717500", "094754.717500", "094756.717500", "094758.717500", "094800.717500", "094802.717500", "094804.717500", "094806.717500", "094808.717500", "094810.717500", "094812.717500", "094814.717500", "094816.717500", "094818.717500", "094820.717500", "094822.717500", "094824.717500", "094826.717500", "094828.717500", "094830.717500", "094832.717500", "094834.717500", "094836.717500", "094838.717500", "094840.717500", "094842.717500", "094844.717500", "094846.717500", "094848.717500", "094850.717500", "094852.717500", "094854.717500"],
      "ContentTime": ["093151.928000", "093231.921000", "093231.923000", "093231.925000", "093231.927000", "093231.929000", "093231.931000", "093231.933000", "093231.935000", "093231.937000", "093231.939000", "093231.941000", "093231.943000", "093231.945000", "093231.947000", "093231.949000", "093231.951000", "093231.953000", "093231.955000", "093231.957000", "093231.959000", "093311.922000", "093311.924000", "093311.927000", "093311.929000", "093311.931000", "093311.932000", "093311.935000", "093311.936000", "093311.938000", "093311.940000", "093311.942000", "093311.944000", "093311.946000", "093311.948000", "093311.951000", "093311.953000", "093311.954000", "093311.956000", "093311.959000", "093311.960000", "093351.921000", "093351.923000", "093351.925000", "093351.934000", "093351.935000", "093351.937000", "093351.940000", "093351.942000", "093351.944000", "093351.946000", "093351.948000", "093351.950000", "093351.952000", "093351.954000", "093351.956000", "093351.958000", "093351.960000", "093351.962000", "093351.964000", "093351.966000", "093431.921000", "093431.923000", "093431.925000", "093431.927000", "093431.929000", "093431.931000", "093431.934000", "093431.936000", "093431.938000", "093431.940000", "093431.952000", "093431.954000", "093431.956000", "093431.958000", "093431.960000", "093431.962000", "093431.964000", "093431.966000", "093431.968000", "093431.970000", "093511.922000", "093511.924000", "093511.934000", "093511.936000", "093511.938000", "093511.940000", "093511.942000", "093511.944000", "093511.946000", "093511.948000", "093511.950000", "093511.952000", "093511.954000", "093511.956000", "093511.958000", "093511.960000", "093511.962000", "093511.964000", "093511.967000", "093511.969000", "093551.922000", "093551.924000", "093551.926000", "093551.928000", "093551.930000", "093551.932000", "093551.934000", "093551.936000", "093551.938000", "093551.940000", "093551.942000", "093551.944000", "093551.946000", "093551.948000", "093551.950000", "093551.952000", "093551.954000", "093551.956000", "093551.958000", "093551.960000", "093631.921000", "093631.923000", "093631.925000", "093631.927000", "093631.929000", "093631.931000", "093631.933000", "093631.935000", "093631.937000", "093631.939000", "093631.941000", "093631.943000", "093631.945000", "093631.947000", "093631.949000", "093631.951000", "093631.953000", "093631.955000", "093631.957000", "093631.959000", "093711.921000", "093711.923000", "093711.925000", "093711.927000", "093711.929000", "093711.931000", "093711.933000", "093711.936000", "093711.937000", "093711.939000", "093711.942000", "093711.943000", "093711.945000", "093711.947000", "093711.949000", "093711.951000", "093711.953000", "093711.955000", "093711.958000", "093711.959000", "093751.922000", "093751.924000", "093751.926000", "093751.928000", "093751.930000", "093751.932000", "093751.934000", "093751.936000", "093751.938000", "093751.940000", "093751.942000", "093751.944000", "093751.946000", "093751.948000", "093751.951000", "093751.953000", "093751.955000", "093751.957000", "093751.959000", "093751.961000", "093831.921000", "093831.923000", "093831.925000", "093831.927000", "093831.929000", "093831.931000", "093831.933000", "093831.935000", "093831.937000", "093831.939000", "093831.942000", "093831.944000", "093831.946000", "093831.948000", "093831.950000", "093831.952000", "093831.954000", "093831.956000", "093831.958000", "093831.960000", "093911.921000", "093911.923000", "093911.925000", "093911.927000", "093911.929000", "093911.931000", "093911.933000", "093911.935000", "093911.937000", "093911.939000", "093911.941000", "093911.943000", "093911.945000", "093911.947000", "093911.949000", "093911.951000", "093911.953000", "093911.955000", "093911.957000", "093911.959000", "093951.922000", "093951.924000", "093951.926000", "093951.928000", "093951.930000", "093951.932000", "093951.934000", "093951.936000", "093951.938000", "093951.940000", "093951.942000", "093951.944000", "093951.946000", "093951.948000", "093951.950000", "093951.952000", "093951.954000", "093951.956000", "093951.958000", "093951.960000", "094031.922000", "094031.924000", "094031.926000", "094031.928000", "094031.930000", "094031.932000", "094031.934000", "094031.936000", "094031.938000", "094031.940000", "094031.942000", "094031.944000", "094031.946000", "094031.948000", "094031.963000", "094031.965000", "094031.967000", "094031.969000", "094031.971000", "094031.973000", "094111.921000", "094111.923000", "094111.925000", "094111.927000", "094111.929000", "094111.931000", "094111.933000", "094111.935000", "094111.937000", "094111.939000", "094111.941000", "094111.943000", "094111.945000", "094111.947000", "094111.949000", "094111.951000", "094111.953000", "094111.955000", "094111.958000", "094111.960000", "094151.921000", "094151.923000", "094151.925000", "094151.927000", "094151.929000", "094151.931000", "094151.933000", "094151.935000", "094151.937000", "094151.939000", "094151.941000", "094151.943000", "094151.945000", "094151.947000", "094151.949000", "094151.951000", "094151.953000", "094151.955000", "094151.957000", "094151.959000", "094231.922000", "094231.924000", "094231.926000", "094231.928000", "094231.930000", "094231.932000", "094231.934000", "094231.936000", "094231.938000", "094231.940000", "094231.942000", "094231.944000", "094231.946000", "094231.948000", "094231.950000", "094231.952000", "094231.954000", "094231.956000", "094231.958000", "094231.960000", "094311.921000", "094311.923000", "094311.925000", "094311.927000", "094311.929000", "094311.931000", "094311.933000", "094311.935000", "094311.937000", "094311.939000", "094311.941000", "094311.943000", "094311.945000", "094311.947000", "094311.949000", "094311.951000", "094311.953000", "094311.955000", "094311.958000", "094311.960000", "094351.921000", "094351.923000", "094351.925000", "094351.927000", "094351.929000", "094351.931000", "094351.933000", "094351.935000", "094351.937000", "094351.939000", "094351.941000", "094351.943000", "094351.945000", "094351.947000", "094351.949000", "094351.951000", "094351.953000", "094351.955000", "094351.957000", "094351.959000", "094431.922000", "094431.924000", "094431.926000", "094431.928000", "094431.930000", "094431.932000", "094431.934000", "094431.936000", "094431.938000", "094431.940000", "094431.942000", "094431.944000", "094431.946000", "094431.948000", "094431.950000", "094431.952000", "094431.954000", "094431.956000", "094431.958000", "094431.960000", "094511.922000", "094511.924000", "094511.926000", "094511.928000", "094511.930000", "094511.935000", "094511.938000", "094511.940000", "094511.942000", "094511.944000", "094511.946000", "094511.948000", "094511.950000", "094511.951000", "094511.954000", "094511.956000", "094511.958000", "094511.960000", "094511.962000", "094511.964000", "094551.921000", "094551.923000", "094551.925000", "094551.927000", "094551.929000", "094551.931000", "094551.933000", "094551.935000", "094551.937000", "094551.939000", "094551.941000", "094551.943000", "094551.945000", "094551.947000", "094551.949000", "094551.951000", "094551.953000", "094551.955000", "094551.958000", "094551.959000", "094631.921000", "094631.923000", "094631.925000", "094631.927000", "094631.929000", "094631.931000", "094631.933000", "094631.935000", "094631.937000", "094631.939000", "094631.941000", "094631.943000", "094631.945000", "094631.947000", "094631.949000", "094631.951000", "094631.953000", "094631.955000", "094631.957000", "094631.959000", "094711.922000", "094711.924000", "094711.927000", "094711.928000", "094711.930000", "094711.932000", "094711.935000", "094711.937000", "094711.938000", "094711.940000", "094711.943000", "094711.944000", "094711.946000", "094711.948000", "094711.950000", "094711.952000", "094711.954000", "094711.956000", "094711.959000", "094711.961000", "094751.921000", "094751.923000", "094751.925000", "094751.927000", "094751.929000", "094751.931000", "094751.933000", "094751.935000", "094751.937000", "094751.939000", "094751.941000", "094751.943000", "094751.945000", "094751.947000", "094751.949000", "094751.951000", "094751.953000", "094751.955000", "094751.958000", "094751.959000", "094831.921000", "094831.923000", "094831.925000", "094831.927000", "094831.929000", "094831.931000", "094831.933000", "094831.935000", "094831.937000", "094831.939000", "094831.941000", "094831.943000", "094831.945000", "094831.947000", "094831.949000", "094831.951000", "094831.953000", "094831.955000", "094831.958000", "094831.960000", "094856.487000", "094856.490000", "094856.492000", "094856.493000", "094856.496000", "094856.498000", "094856.500000", "094856.502000", "094856.504000", "094856.522000", "094856.524000", "094856.526000", "094856.528000"],
