{
  "AcquisitionMatrixPE": 64,
  "AcquisitionNumber": 1,
  "AcquisitionTime": "10:07:40.632500",
  "BandwidthPerPixelPhaseEncode": 25.202,
  "BaseResolution": 64,
  "BodyPartExamined": "BRAIN",
  "ConsistencyInfo": "N4_VD13C_LATEST_20121124",
  "ConversionSoftware": "dcm2niix",
  "ConversionSoftwareVersion": "v1.0.20201102",
  "DerivedVendorReportedEchoSpacing": 0.00061999,
  "DeviceSerialNumber": "45758",
  "DwellTime": 4.3e-06,
  "EchoTime": 0.03,
  "EchoTrainLength": 64,
  "EffectiveEchoSpacing": 0.00061999,
  "FlipAngle": 90,
  "ImageOrientationPatientDICOM": [0.997267, 0.0558122, -0.048418, -0.0609954, 0.991701, -0.113175],
  "ImageType": [
    "ORIGINAL",
    "PRIMARY",
    "M",
    "ND",
    "MOSAIC"
],
  "ImagingFrequency": 123.2,
  "InPlanePhaseEncodingDirectionDICOM": "ROW",
  "InstitutionAddress": "Street StreetNo,City /652E4B/,District,KR,ZIP",
  "InstitutionName": "DGMIF",
  "InstitutionalDepartmentName": "Department",
  "MRAcquisitionType": "2D",
  "MagneticFieldStrength": 3,
  "Manufacturer": "Siemens",
  "ManufacturersModelName": "Skyra",
  "Modality": "MR",
  "PartialFourier": 1,
  "PatientPosition": "HFS",
  "PercentPhaseFOV": 100,
  "PercentSampling": 100,
  "PhaseEncodingDirection": "i",
  "PhaseEncodingSteps": 64,
  "PhaseResolution": 1,
  "PixelBandwidth": 1815,
  "ProcedureStepDescription": "DGMIF^DGIST_Jeon",
  "ProtocolName": "EPI_DGIST_3",
  "PulseSequenceDetails": "%SiemensSeq%\\ep2d_bold",
  "ReceiveCoilActiveElements": "HC1-7",
  "ReceiveCoilName": "HeadNeck_64",
  "ReconMatrixPE": 64,
  "RepetitionTime": 2,
  "SAR": 0.149918,
  "ScanOptions": "FS",
  "ScanningSequence": "EP",
  "SequenceName": "*epfid2d1_64",
  "SequenceVariant": "SK",
  "SeriesDescription": "EPI_DGIST_3",
  "SeriesNumber": 6,
  "ShimSetting": [-9725, -13643, -8211, 319, -533, -235, -247, -8],
  "SliceThickness": 4,
  "SliceTiming": [0.99, 0, 1.055, 0.065, 1.12, 0.1325, 1.1875, 0.1975, 1.2525, 0.2625, 1.32, 0.33, 1.385, 0.395, 1.45, 0.4625, 1.5175, 0.5275, 1.5825, 0.5925, 1.65, 0.66, 1.715, 0.725, 1.78, 0.7925, 1.8475, 0.8575, 1.9125, 0.9225],
  "SoftwareVersions": "syngo MR D13C",
  "SpacingBetweenSlices": 4.8,
  "StationName": "AWP45758",
  "TaskName": "asrt",
  "TotalReadoutTime": 0.0390594,
  "TxRefAmp": 343.128,
  "dcmmeta_affine": [
    [-2.991799831390381, -0.182986319065094, -0.20015813410282135, 99.61997985839844],
    [-0.16743651032447815, 2.9751029014587402, -0.5559329986572266, -105.03418731689453],
    [-0.1452540010213852, 0.33952635526657104, 4.76349401473999, -85.0237808227539],
    [0.0, 0.0, 0.0, 1.0]
],
  "dcmmeta_reorient_transform": [
    [0.0, -1.0, 0.0, 63.0],
    [1.0, 0.0, 0.0, 0.0],
    [0.0, 0.0, 1.0, 0.0],
    [0.0, 0.0, 0.0, 1.0]
],
  "dcmmeta_shape": [64, 64, 30, 364],
  "dcmmeta_slice_dim": 2,
  "dcmmeta_version": 0.6,
  "global": {
    "const": {
      "AcquisitionMatrix": [0, 64, 64, 0],
      "AngioFlag": "N",
      "BitsAllocated": 16,
      "BitsStored": 12,
      "BodyPartExamined": "BRAIN",
      "Columns": 384,
      "EchoNumbers": 1,
      "EchoTime": 30.0,
      "EchoTrainLength": 64,
      "FlipAngle": 90.0,
      "HighBit": 11,
      "ImageOrientationPatient": [0.9972666136199, 0.05581217213623, -0.0484180007903, -0.0609954399539, 0.99170100051075, -0.1131754473851],
      "ImagePositionPatient": [-537.50200557331, -585.20362412679, 13.931234962455],
      "ImageType": [
        "ORIGINAL",
        "PRIMARY",
        "M",
        "ND",
        "MOSAIC"
],
      "ImagedNucleus": "1H",
      "ImagingFrequency": 123.200188,
      "InPlanePhaseEncodingDirection": "ROW",
      "MRAcquisitionType": "2D",
      "MagneticFieldStrength": 3.0,
      "Manufacturer": "SIEMENS",
      "ManufacturerModelName": "Skyra",
      "Modality": "MR",
      "NumberOfAverages": 1.0,
      "NumberOfPhaseEncodingSteps": 64,
      "PercentPhaseFieldOfView": 100.0,
      "PercentSampling": 100.0,
      "PerformedProcedureStepStartTime": "091335.710000",
      "PhotometricInterpretation": "MONOCHROME2",
      "PixelBandwidth": 1815.0,
      "PixelRepresentation": 0,
      "PixelSpacing": [3.0, 3.0],
      "ProtocolName": "EPI_DGIST_3",
      "RepetitionTime": 2000.0,
      "Rows": 384,
      "SAR": 0.14991847136808,
      "SamplesPerPixel": 1,
      "ScanOptions": "FS",
      "ScanningSequence": "EP",
      "SequenceName": "*epfid2d1_64",
      "SequenceVariant": "SK",
      "SeriesDescription": "EPI_DGIST_3",
      "SeriesNumber": 6,
      "SeriesTime": "100839.305000",
      "SliceLocation": -76.366259553083,
      "SliceThickness": 4.0,
      "SmallestImagePixelValue": 0,
      "SoftwareVersions": "syngo MR D13C",
      "SpacingBetweenSlices": 4.8000000097434,
      "SpecificCharacterSet": "ISO_IR 100",
      "StudyID": "1",
      "StudyTime": "091335.611000",
      "TimeOfLastCalibration": ["123723.000000", "123723.000000"],
      "TransmitCoilName": "Body",
      "VariableFlipAngleFlag": "N",
      "WindowCenterWidthExplanation": "Algo1",
      "dBdt": 0.0},
    "slices": {}
  },
  "time": {
    "samples": {
      "AcquisitionNumber": [1, 2, 3, 4, 5, 6, 7, 8, 9, 10, 11, 12, 13, 14, 15, 16, 17, 18, 19, 20, 21, 22, 23, 24, 25, 26, 27, 28, 29, 30, 31, 32, 33, 34, 35, 36, 37, 38, 39, 40, 41, 42, 43, 44, 45, 46, 47, 48, 49, 50, 51, 52, 53, 54, 55, 56, 57, 58, 59, 60, 61, 62, 63, 64, 65, 66, 67, 68, 69, 70, 71, 72, 73, 74, 75, 76, 77, 78, 79, 80, 81, 82, 83, 84, 85, 86, 87, 88, 89, 90, 91, 92, 93, 94, 95, 96, 97, 98, 99, 100, 101, 102, 103, 104, 105, 106, 107, 108, 109, 110, 111, 112, 113, 114, 115, 116, 117, 118, 119, 120, 121, 122, 123, 124, 125, 126, 127, 128, 129, 130, 131, 132, 133, 134, 135, 136, 137, 138, 139, 140, 141, 142, 143, 144, 145, 146, 147, 148, 149, 150, 151, 152, 153, 154, 155, 156, 157, 158, 159, 160, 161, 162, 163, 164, 165, 166, 167, 168, 169, 170, 171, 172, 173, 174, 175, 176, 177, 178, 179, 180, 181, 182, 183, 184, 185, 186, 187, 188, 189, 190, 191, 192, 193, 194, 195, 196, 197, 198, 199, 200, 201, 202, 203, 204, 205, 206, 207, 208, 209, 210, 211, 212, 213, 214, 215, 216, 217, 218, 219, 220, 221, 222, 223, 224, 225, 226, 227, 228, 229, 230, 231, 232, 233, 234, 235, 236, 237, 238, 239, 240, 241, 242, 243, 244, 245, 246, 247, 248, 249, 250, 251, 252, 253, 254, 255, 256, 257, 258, 259, 260, 261, 262, 263, 264, 265, 266, 267, 268, 269, 270, 271, 272, 273, 274, 275, 276, 277, 278, 279, 280, 281, 282, 283, 284, 285, 286, 287, 288, 289, 290, 291, 292, 293, 294, 295, 296, 297, 298, 299, 300, 301, 302, 303, 304, 305, 306, 307, 308, 309, 310, 311, 312, 313, 314, 315, 316, 317, 318, 319, 320, 321, 322, 323, 324, 325, 326, 327, 328, 329, 330, 331, 332, 333, 334, 335, 336, 337, 338, 339, 340, 341, 342, 343, 344, 345, 346, 347, 348, 349, 350, 351, 352, 353, 354, 355, 356, 357, 358, 359, 360, 361, 362, 363, 364],
      "AcquisitionTime": ["100740.632500", "100742.632500", "100744.632500", "100746.632500", "100748.632500", "100750.632500", "100752.632500", "100754.632500", "100756.632500", "100758.632500", "100800.632500", "100802.632500", "100804.632500", "100806.632500", "100808.632500", "100810.632500", "100812.632500", "100814.632500", "100816.632500", "100818.632500", "100820.632500", "100822.632500", "100824.632500", "100826.632500", "100828.632500", "100830.632500", "100832.632500", "100834.632500", "100836.632500", "100838.632500", "100840.632500", "100842.632500", "100844.632500", "100846.632500", "100848.632500", "100850.632500", "100852.632500", "100854.632500", "100856.632500", "100858.632500", "100900.632500", "100902.632500", "100904.632500", "100906.632500", "100908.632500", "100910.632500", "100912.632500", "100914.632500", "100916.632500", "100918.632500", "100920.632500", "100922.632500", "100924.632500", "100926.632500", "100928.632500", "100930.632500", "100932.632500", "100934.632500", "100936.632500", "100938.632500", "100940.632500", "100942.632500", "100944.632500", "100946.632500", "100948.632500", "100950.632500", "100952.632500", "100954.632500", "100956.632500", "100958.632500", "101000.632500", "101002.632500", "101004.632500", "101006.632500", "101008.632500", "101010.632500", "101012.632500", "101014.632500", "101016.632500", "101018.632500", "101020.632500", "101022.632500", "101024.632500", "101026.632500", "101028.632500", "101030.632500", "101032.632500", "101034.632500", "101036.632500", "101038.632500", "101040.632500", "101042.632500", "101044.632500", "101046.632500", "101048.632500", "101050.632500", "101052.632500", "101054.632500", "101056.632500", "101058.632500", "101100.632500", "101102.632500", "101104.632500", "101106.632500", "101108.632500", "101110.632500", "101112.632500", "101114.632500", "101116.632500", "101118.632500", "101120.632500", "101122.632500", "101124.632500", "101126.632500", "101128.632500", "101130.632500", "101132.632500", "101134.632500", "101136.632500", "101138.632500", "101140.632500", "101142.632500", "101144.632500", "101146.632500", "101148.632500", "101150.632500", "101152.632500", "101154.632500", "101156.632500", "101158.632500", "101200.632500", "101202.632500", "101204.632500", "101206.632500", "101208.632500", "101210.632500", "101212.632500", "101214.632500", "101216.632500", "101218.632500", "101220.632500", "101222.632500", "101224.632500", "101226.632500", "101228.632500", "101230.632500", "101232.632500", "101234.632500", "101236.632500", "101238.632500", "101240.632500", "101242.632500", "101244.632500", "101246.632500", "101248.632500", "101250.632500", "101252.632500", "101254.632500", "101256.632500", "101258.632500", "101300.632500", "101302.632500", "101304.632500", "101306.632500", "101308.632500", "101310.632500", "101312.632500", "101314.632500", "101316.632500", "101318.632500", "101320.632500", "101322.632500", "101324.632500", "101326.632500", "101328.632500", "101330.632500", "101332.632500", "101334.632500", "101336.632500", "101338.632500", "101340.632500", "101342.632500", "101344.632500", "101346.632500", "101348.632500", "101350.632500", "101352.632500", "101354.632500", "101356.632500", "101358.632500", "101400.632500", "101402.632500", "101404.632500", "101406.632500", "101408.632500", "101410.632500", "101412.632500", "101414.632500", "101416.632500", "101418.632500", "101420.632500", "101422.635000", "101424.635000", "101426.635000", "101428.635000", "101430.635000", "101432.635000", "101434.635000", "101436.635000", "101438.635000", "101440.635000", "101442.635000", "101444.635000", "101446.635000", "101448.635000", "101450.635000", "101452.635000", "101454.635000", "101456.635000", "101458.635000", "101500.635000", "101502.635000", "101504.635000", "101506.635000", "101508.635000", "101510.635000", "101512.635000", "101514.635000", "101516.635000", "101518.635000", "101520.635000", "101522.635000", "101524.635000", "101526.635000", "101528.635000", "101530.635000", "101532.635000", "101534.635000", "101536.635000", "101538.635000", "101540.635000", "101542.635000", "101544.635000", "101546.635000", "101548.635000", "101550.635000", "101552.635000", "101554.635000", "101556.635000", "101558.635000", "101600.635000", "101602.635000", "101604.635000", "101606.635000", "101608.635000", "101610.635000", "101612.635000", "101614.635000", "101616.635000", "101618.635000", "101620.635000", "101622.635000", "101624.635000", "101626.635000", "101628.635000", "101630.635000", "101632.635000", "101634.635000", "101636.635000", "101638.635000", "101640.635000", "101642.635000", "101644.635000", "101646.635000", "101648.635000", "101650.635000", "101652.635000", "101654.635000", "101656.635000", "101658.635000", "101700.635000", "101702.635000", "101704.635000", "101706.635000", "101708.635000", "101710.635000", "101712.635000", "101714.635000", "101716.635000", "101718.635000", "101720.635000", "101722.635000", "101724.635000", "101726.635000", "101728.635000", "101730.635000", "101732.635000", "101734.635000", "101736.635000", "101738.635000", "101740.635000", "101742.635000", "101744.635000", "101746.635000", "101748.635000", "101750.635000", "101752.635000", "101754.635000", "101756.635000", "101758.635000", "101800.635000", "101802.635000", "101804.635000", "101806.635000", "101808.635000", "101810.635000", "101812.635000", "101814.635000", "101816.635000", "101818.635000", "101820.635000", "101822.635000", "101824.635000", "101826.635000", "101828.635000", "101830.635000", "101832.635000", "101834.635000", "101836.635000", "101838.635000", "101840.635000", "101842.635000", "101844.635000", "101846.635000", "101848.635000", "101850.635000", "101852.635000", "101854.635000", "101856.635000", "101858.635000", "101900.635000", "101902.635000", "101904.635000", "101906.635000", "101908.635000", "101910.635000", "101912.635000", "101914.635000", "101916.635000", "101918.635000", "101920.635000", "101922.635000", "101924.635000", "101926.635000", "101928.635000", "101930.635000", "101932.635000", "101934.635000", "101936.635000", "101938.635000", "101940.635000", "101942.635000", "101944.635000", "101946.635000"],
      "ContentTime": ["100839.308000", "100839.310000", "100839.312000", "100839.314000", "100839.316000", "100839.318000", "100839.320000", "100839.322000", "100839.324000", "100839.326000", "100839.328000", "100839.337000", "100839.339000", "100839.341000", "100839.343000", "100839.345000", "100839.353000", "100839.355000", "100839.357000", "100839.359000", "100839.361000", "100839.363000", "100839.365000", "100839.367000", "100839.369000", "100839.371000", "100839.373000", "100839.374000", "100839.376000", "100919.303000", "100919.305000", "100919.307000", "100919.309000", "100919.311000", "100919.313000", "100919.315000", "100919.317000", "100919.327000", "100919.329000", "100919.331000", "100919.333000", "100919.335000", "100919.337000", "100919.339000", "100919.341000", "100919.343000", "100919.344000", "100919.346000", "100919.348000", "100939.303000", "100939.305000", "100939.307000", "100939.309000", "100939.311000", "100939.313000", "100939.315000", "100939.317000", "100939.319000", "100939.321000", "101019.303000", "101019.305000", "101019.307000", "101019.309000", "101019.311000", "101019.313000", "101019.315000", "101019.317000", "101019.319000", "101019.321000", "101019.323000", "101019.325000", "101019.327000", "101019.329000", "101019.331000", "101019.333000", "101019.335000", "101019.337000", "101019.339000", "101019.340000", "101059.303000", "101059.305000", "101059.307000", "101059.309000", "101059.311000", "101059.313000", "101059.315000", "101059.317000", "101059.319000", "101059.321000", "101059.323000", "101059.325000", "101059.330000", "101059.332000", "101059.334000", "101059.336000", "101059.338000", "101059.340000", "101059.342000", "101059.344000", "101139.303000", "101139.305000", "101139.307000", "101139.309000", "101139.311000", "101139.313000", "101139.315000", "101139.317000", "101139.319000", "101139.321000", "101139.323000", "101139.325000", "101139.327000", "101139.329000", "101139.331000", "101139.333000", "101139.335000", "101139.337000", "101139.339000", "101139.341000", "101219.303000", "101219.305000", "101219.307000", "101219.309000", "101219.311000", "101219.313000", "101219.315000", "101219.317000", "101219.319000", "101219.321000", "101219.323000", "101219.325000", "101219.327000", "101219.329000", "101219.331000", "101219.333000", "101219.335000", "101219.337000", "101219.339000", "101219.341000", "101259.303000", "101259.305000", "101259.307000", "101259.309000", "101259.311000", "101259.313000", "101259.315000", "101259.317000", "101259.319000", "101259.321000", "101259.323000", "101259.325000", "101259.327000", "101259.329000", "101259.331000", "101259.333000", "101259.335000", "101259.337000", "101259.339000", "101259.341000", "101339.303000", "101339.305000", "101339.307000", "101339.309000", "101339.311000", "101339.313000", "101339.315000", "101339.317000", "101339.319000", "101339.321000", "101339.323000", "101339.325000", "101339.327000", "101339.329000", "101339.331000", "101339.333000", "101339.335000", "101339.337000", "101339.339000", "101339.340000", "101419.303000", "101419.305000", "101419.307000", "101419.309000", "101419.311000", "101419.313000", "101419.315000", "101419.317000", "101419.319000", "101419.321000", "101419.323000", "101419.325000", "101419.327000", "101419.329000", "101419.331000", "101419.333000", "101419.335000", "101419.337000", "101419.339000", "101419.341000", "101459.303000", "101459.305000", "101459.308000", "101459.309000", "101459.311000", "101459.313000", "101459.315000", "101459.317000", "101459.319000", "101459.321000", "101459.323000", "101459.325000", "101459.327000", "101459.329000", "101459.331000", "101459.333000", "101459.335000", "101459.337000", "101459.339000", "101459.341000", "101539.303000", "101539.305000", "101539.307000", "101539.309000", "101539.311000", "101539.313000", "101539.315000", "101539.317000", "101539.319000", "101539.321000", "101539.323000", "101539.325000", "101539.327000", "101539.329000", "101539.331000", "101539.333000", "101539.335000", "101539.337000", "101539.339000", "101539.341000", "101619.303000", "101619.305000", "101619.307000", "101619.309000", "101619.311000", "101619.313000", "101619.315000", "101619.317000", "101619.319000", "101619.321000", "101619.323000", "101619.325000", "101619.327000", "101619.329000", "101619.331000", "101619.333000", "101619.343000", "101619.345000", "101619.347000", "101619.349000", "101659.303000", "101659.305000", "101659.307000", "101659.309000", "101659.311000", "101659.313000", "101659.315000", "101659.317000", "101659.319000", "101659.321000", "101659.323000", "101659.325000", "101659.327000", "101659.329000", "101659.331000", "101659.333000", "101659.338000", "101659.340000", "101659.342000", "101659.344000", "101739.303000", "101739.305000", "101739.307000", "101739.309000", "101739.311000", "101739.313000", "101739.315000", "101739.317000", "101739.319000", "101739.321000", "101739.323000", "101739.325000", "101739.327000", "101739.329000", "101739.331000", "101739.333000", "101739.335000", "101739.337000", "101739.339000", "101739.341000", "101819.303000", "101819.305000", "101819.307000", "101819.309000", "101819.311000", "101819.313000", "101819.315000", "101819.317000", "101819.319000", "101819.321000", "101819.323000", "101819.325000", "101819.327000", "101819.329000", "101819.331000", "101819.333000", "101819.335000", "101819.337000", "101819.338000", "101819.340000", "101859.302000", "101859.304000", "101859.306000", "101859.308000", "101859.310000", "101859.312000", "101859.314000", "101859.316000", "101859.318000", "101859.320000", "101859.322000", "101859.324000", "101859.326000", "101859.328000", "101859.330000", "101859.332000", "101859.334000", "101859.336000", "101859.338000", "101859.340000", "101939.303000", "101939.306000", "101939.307000", "101939.310000", "101939.311000", "101939.313000", "101939.315000", "101939.317000", "101939.319000", "101939.321000", "101939.323000", "101939.325000", "101939.327000", "101939.329000", "101939.331000", "101939.333000", "101939.335000", "101939.337000", "101939.339000", "101939.341000", "101948.446000", "101948.448000", "101948.450000", "101948.452000", "101948.454000"],
      "InstanceCreationTime": ["100839.308000", "100839.310000", "100839.312000", "100839.314000", "100839.316000", "100839.318000", "100839.320000", "100839.322000", "100839.324000", "100839.326000", "100839.328000", "100839.337000", "100839.339000", "100839.341000", "100839.343000", "100839.345000", "100839.353000", "100839.355000", "100839.357000", "100839.359000", "100839.361000", "100839.363000", "100839.365000", "100839.367000", "100839.369000", "100839.371000", "100839.373000", "100839.374000", "100839.376000", "100919.303000", "100919.305000", "100919.307000", "100919.309000", "100919.311000", "100919.313000", "100919.315000", "100919.317000", "100919.327000", "100919.329000", "100919.331000", "100919.333000", "100919.335000", "100919.337000", "100919.339000", "100919.341000", "100919.343000", "100919.344000", "100919.346000", "100919.348000", "100939.303000", "100939.305000", "100939.307000", "100939.309000", "100939.311000", "100939.313000", "100939.315000", "100939.317000", "100939.319000", "100939.321000", "101019.303000", "101019.305000", "101019.307000", "101019.309000", "101019.311000", "101019.313000", "101019.315000", "101019.317000", "101019.319000", "101019.321000", "101019.323000", "101019.325000", "101019.327000", "101019.329000", "101019.331000", "101019.333000", "101019.335000", "101019.337000", "101019.339000", "101019.340000", "101059.303000", "101059.305000", "101059.307000", "101059.309000", "101059.311000", "101059.313000", "101059.315000", "101059.317000", "101059.319000", "101059.321000", "101059.323000", "101059.325000", "101059.330000", "101059.332000", "101059.334000", "101059.336000", "101059.338000", "101059.340000", "101059.342000", "101059.344000", "101139.303000", "101139.305000", "101139.307000", "101139.309000", "101139.311000", "101139.313000", "101139.315000", "101139.317000", "101139.319000", "101139.321000", "101139.323000", "101139.325000", "101139.327000", "101139.329000", "101139.331000", "101139.333000", "101139.335000", "101139.337000", "101139.339000", "101139.341000", "101219.303000", "101219.305000", "101219.307000", "101219.309000", "101219.311000", "101219.313000", "101219.315000", "101219.317000", "101219.319000", "101219.321000", "101219.323000", "101219.325000", "101219.327000", "101219.329000", "101219.331000", "101219.333000", "101219.335000", "101219.337000", "101219.339000", "101219.341000", "101259.303000", "101259.305000", "101259.307000", "101259.309000", "101259.311000", "101259.313000", "101259.315000", "101259.317000", "101259.319000", "101259.321000", "101259.323000", "101259.325000", "101259.327000", "101259.329000", "101259.331000", "101259.333000", "101259.335000", "101259.337000", "101259.339000", "101259.341000", "101339.303000", "101339.305000", "101339.307000", "101339.309000", "101339.311000", "101339.313000", "101339.315000", "101339.317000", "101339.319000", "101339.321000", "101339.323000", "101339.325000", "101339.327000", "101339.329000", "101339.331000", "101339.333000", "101339.335000", "101339.337000", "101339.339000", "101339.340000", "101419.303000", "101419.305000", "101419.307000", "101419.309000", "101419.311000", "101419.313000", "101419.315000", "101419.317000", "101419.319000", "101419.321000", "101419.323000", "101419.325000", "101419.327000", "101419.329000", "101419.331000", "101419.333000", "101419.335000", "101419.337000", "101419.339000", "101419.341000", "101459.303000", "101459.305000", "101459.308000", "101459.309000", "101459.311000", "101459.313000", "101459.315000", "101459.317000", "101459.319000", "101459.321000", "101459.323000", "101459.325000", "101459.327000", "101459.329000", "101459.331000", "101459.333000", "101459.335000", "101459.337000", "101459.339000", "101459.341000", "101539.303000", "101539.305000", "101539.307000", "101539.309000", "101539.311000", "101539.313000", "101539.315000", "101539.317000", "101539.319000", "101539.321000", "101539.323000", "101539.325000", "101539.327000", "101539.329000", "101539.331000", "101539.333000", "101539.335000", "101539.337000", "101539.339000", "101539.341000", "101619.303000", "101619.305000", "101619.307000", "101619.309000", "101619.311000", "101619.313000", "101619.315000", "101619.317000", "101619.319000", "101619.321000", "101619.323000", "101619.325000", "101619.327000", "101619.329000", "101619.331000", "101619.333000", "101619.343000", "101619.345000", "101619.347000", "101619.349000", "101659.303000", "101659.305000", "101659.307000", "101659.309000", "101659.311000", "101659.313000", "101659.315000", "101659.317000", "101659.319000", "101659.321000", "101659.323000", "101659.325000", "101659.327000", "101659.329000", "101659.331000", "101659.333000", "101659.338000", "101659.340000", "101659.342000", "101659.344000", "101739.303000", "101739.305000", "101739.307000", "101739.309000", "101739.311000", "101739.313000", "101739.315000", "101739.317000", "101739.319000", "101739.321000", "101739.323000", "101739.325000", "101739.327000", "101739.329000", "101739.331000", "101739.333000", "101739.335000", "101739.337000", "101739.339000", "101739.341000", "101819.303000", "101819.305000", "101819.307000", "101819.309000", "101819.311000", "101819.313000", "101819.315000", "101819.317000", "101819.319000", "101819.321000", "101819.323000", "101819.325000", "101819.327000", "101819.329000", "101819.331000", "101819.333000", "101819.335000", "101819.337000", "101819.338000", "101819.340000", "101859.302000", "101859.304000", "101859.306000", "101859.308000", "101859.310000", "101859.312000", "101859.314000", "101859.316000", "101859.318000", "101859.320000", "101859.322000", "101859.324000", "101859.326000", "101859.328000", "101859.330000", "101859.332000", "101859.334000", "101859.336000", "101859.338000", "101859.340000", "101939.303000", "101939.306000", "101939.307000", "101939.310000", "101939.311000", "101939.313000", "101939.315000", "101939.317000", "101939.319000", "101939.321000", "101939.323000", "101939.325000", "101939.327000", "101939.329000", "101939.331000", "101939.333000", "101939.335000", "101939.337000", "101939.339000", "101939.341000", "101948.446000", "101948.448000", "101948.450000", "101948.452000", "101948.454000"],
      "InstanceNumber": [1, 2, 3, 4, 5, 6, 7, 8, 9, 10, 11, 12, 13, 14, 15, 16, 17, 18, 19, 20, 21, 22, 23, 24, 25, 26, 27, 28, 29, 30, 31, 32, 33, 34, 35, 36, 37, 38, 39, 40, 41, 42, 43, 44, 45, 46, 47, 48, 49, 50, 51, 52, 53, 54, 55, 56, 57, 58, 59, 60, 61, 62, 63, 64, 65, 66, 67, 68, 69, 70, 71, 72, 73, 74, 75, 76, 77, 78, 79, 80, 81, 82, 83, 84, 85, 86, 87, 88, 89, 90, 91, 92, 93, 94, 95, 96, 97, 98, 99, 100, 101, 102, 103, 104, 105, 106, 107, 108, 109, 110, 111, 112, 113, 114, 115, 116, 117, 118, 119, 120, 121, 122, 123, 124, 125, 126, 127, 128, 129, 130, 131, 132, 133, 134, 135, 136, 137, 138, 139, 140, 141, 142, 143, 144, 145, 146, 147, 148, 149, 150, 151, 152, 153, 154, 155, 156, 157, 158, 159, 160, 161, 162, 163, 164, 165, 166, 167, 168, 169, 170, 171, 172, 173, 174, 175, 176, 177, 178, 179, 180, 181, 182, 183, 184, 185, 186, 187, 188, 189, 190, 191, 192, 193, 194, 195, 196, 197, 198, 199, 200, 201, 202, 203, 204, 205, 206, 207, 208, 209, 210, 211, 212, 213, 214, 215, 216, 217, 218, 219, 220, 221, 222, 223, 224, 225, 226, 227, 228, 229, 230, 231, 232, 233, 234, 235, 236, 237, 238, 239, 240, 241, 242, 243, 244, 245, 246, 247, 248, 249, 250, 251, 252, 253, 254, 255, 256, 257, 258, 259, 260, 261, 262, 263, 264, 265, 266, 267, 268, 269, 270, 271, 272, 273, 274, 275, 276, 277, 278, 279, 280, 281, 282, 283, 284, 285, 286, 287, 288, 289, 290, 291, 292, 293, 294, 295, 296, 297, 298, 299, 300, 301, 302, 303, 304, 305, 306, 307, 308, 309, 310, 311, 312, 313, 314, 315, 316, 317, 318, 319, 320, 321, 322, 323, 324, 325, 326, 327, 328, 329, 330, 331, 332, 333, 334, 335, 336, 337, 338, 339, 340, 341, 342, 343, 344, 345, 346, 347, 348, 349, 350, 351, 352, 353, 354, 355, 356, 357, 358, 359, 360, 361, 362, 363, 364],
      "LargestImagePixelValue": [3132, 3074, 3052, 2997, 3003, 3032, 3052, 3012, 3057, 3027, 3057, 3023, 3011, 3043, 2999, 3015, 3001, 3021, 3007, 3034, 2976, 3031, 3015, 2974, 3024, 3002, 3038, 3005, 3029, 3017, 2962, 3008, 3050, 3026, 3002, 3019, 3011, 3045, 3011, 3030, 3000, 3033, 3006, 3022, 3019, 2986, 3031, 2994, 3009, 2998, 3031, 3006, 2998, 3024, 3036, 3027, 3012, 3015, 3010, 3034, 2978, 3031, 3010, 3066, 3038, 3033, 3017, 2993, 3001, 2977, 3027, 3010, 3027, 3006, 3027, 3026, 2987, 3052, 3020, 2973, 3008, 3000, 3003, 3039, 3019, 3047, 3013, 2989, 3034, 3017, 3055, 2981, 3016, 3033, 2996, 3019, 3005, 2975, 3023, 2998, 3029, 3023, 2975, 3049, 3006, 3004, 2984, 2993, 2980, 3007, 2950, 3030, 3024, 3063, 3018, 3025, 3000, 3022, 2987, 3015, 2957, 3055, 2866, 3036, 3023, 3007, 3034, 2961, 2993, 2947, 2963, 3003, 2982, 3027, 2979, 3007, 2972, 3015, 2986, 2999, 2942, 3000, 2986, 3022, 3007, 2981, 2982, 2958, 2998, 2976, 3001, 2987, 3011, 2996, 3015, 2952, 2991, 3003, 2984, 2987, 2973, 2998, 2988, 2994, 2971, 2975, 3005, 2995, 3022, 2998, 2957, 2992, 2990, 2988, 3018, 3007, 2967, 2975, 2961, 2974, 2921, 2980, 3018, 3014, 3004, 2962, 2972, 2959, 2984, 2973, 2999, 2983, 2992, 2984, 2979, 2994, 2970, 2949, 2979, 2969, 2978, 2951, 2986, 2956, 2988, 2957, 2969, 2960, 3012, 2987, 2971, 3001, 2984, 2983, 2999, 2989, 2973, 2986, 2990, 2980, 2982, 2985, 2948, 2988, 2950, 2999, 2965, 2971, 3011, 2966, 2968, 2992, 2961, 2973, 2992, 2983, 2988, 2966, 3024, 2992, 2936, 3030, 3001, 3040, 3009, 2952, 2994, 2984, 2982, 2976, 3018, 2991, 2974, 2996, 2984, 2989, 3016, 2978, 2999, 2983, 2978, 3008, 2966, 2996, 2972, 2940, 3007, 2955, 2981, 2963, 2945, 2987, 2973, 2992, 2992, 2991, 2984, 2997, 2977, 2974, 2967, 3003, 2966, 3011, 2978, 2975, 3026, 2990, 2945, 3005, 2965, 2986, 3013, 2974, 2998, 2984, 3005, 2975, 2984, 2998, 2965, 3015, 2967, 2957, 3002, 2970, 2976, 3006, 2960, 3019, 2954, 2961, 2965, 2934, 2980, 2998, 2992, 2976, 2949, 2979, 2964, 3022, 2985, 2997, 2991, 3013, 2989, 2988, 2974, 2982, 2979, 2986, 2983, 2955, 3015, 2973, 2994, 2960, 2978, 2970, 3001, 2949, 3012, 2991, 2902, 3011, 2945, 2957, 2980, 2936, 2996, 2972, 2976, 2964, 2940, 2993, 2947, 2977, 2996, 2957, 2983, 2982, 2981, 2978],
