{
  "AcquisitionMatrixPE": 64,
  "AcquisitionNumber": 1,
  "AcquisitionTime": "15:22:8.507500",
  "BandwidthPerPixelPhaseEncode": 25.202,
  "BaseResolution": 64,
  "BodyPartExamined": "BRAIN",
  "ConsistencyInfo": "N4_VD13C_LATEST_20121124",
  "ConversionSoftware": "dcm2niix",
  "ConversionSoftwareVersion": "v1.0.20201102",
  "DerivedVendorReportedEchoSpacing": 0.00061999,
  "DeviceSerialNumber": "45758",
  "DwellTime": 4.3e-06,
  "EchoTime": 0.03,
  "EchoTrainLength": 64,
  "EffectiveEchoSpacing": 0.00061999,
  "FlipAngle": 90,
  "ImageOrientationPatientDICOM": [0.999517, -0.00930983, 0.0296488, 0.0104673, 0.999179, -0.0391266],
  "ImageType": [
    "ORIGINAL",
    "PRIMARY",
    "M",
    "ND",
    "MOSAIC"
],
  "ImagingFrequency": 123.2,
  "InPlanePhaseEncodingDirectionDICOM": "ROW",
  "InstitutionAddress": "Street StreetNo,City /652E4B/,District,KR,ZIP",
  "InstitutionName": "DGMIF",
  "InstitutionalDepartmentName": "Department",
  "MRAcquisitionType": "2D",
  "MagneticFieldStrength": 3,
  "Manufacturer": "Siemens",
  "ManufacturersModelName": "Skyra",
  "Modality": "MR",
  "PartialFourier": 1,
  "PatientPosition": "HFS",
  "PercentPhaseFOV": 100,
  "PercentSampling": 100,
  "PhaseEncodingDirection": "i",
  "PhaseEncodingSteps": 64,
  "PhaseResolution": 1,
  "PixelBandwidth": 1815,
  "ProcedureStepDescription": "DGMIF^DGIST_Jeon",
  "ProtocolName": "EPI_DGIST_1",
  "PulseSequenceDetails": "%SiemensSeq%\\ep2d_bold",
  "ReceiveCoilActiveElements": "HC1-6",
  "ReceiveCoilName": "HeadNeck_64",
  "ReconMatrixPE": 64,
  "RepetitionTime": 2,
  "SAR": 0.119221,
  "ScanOptions": "FS",
  "ScanningSequence": "EP",
  "SequenceName": "*epfid2d1_64",
  "SequenceVariant": "SK",
  "SeriesDescription": "EPI_DGIST_1",
  "SeriesNumber": 2,
  "ShimSetting": [-9744, -13677, -8163, 330, -366, -162, -21, -131],
  "SliceThickness": 4,
  "SliceTiming": [0.99, 0, 1.055, 0.065, 1.12, 0.13, 1.1875, 0.1975, 1.2525, 0.2625, 1.32, 0.33, 1.385, 0.395, 1.45, 0.46, 1.5175, 0.5275, 1.5825, 0.5925, 1.65, 0.66, 1.715, 0.725, 1.78, 0.79, 1.8475, 0.8575, 1.9125, 0.9225],
  "SoftwareVersions": "syngo MR D13C",
  "SpacingBetweenSlices": 4.8,
  "StationName": "AWP45758",
  "TaskName": "asrt",
  "TotalReadoutTime": 0.0390594,
  "TxRefAmp": 329.378,
  "dcmmeta_affine": [
    [-2.9985511302948, 0.03140190243721008, 0.14044880867004395, 91.6905746459961],
    [0.02792949043214321, 2.9975383281707764, -0.1892065405845642, -113.01783752441406],
    [0.08894627541303635, 0.11737974733114243, 4.794212818145752, -76.27806091308594],
    [0.0, 0.0, 0.0, 1.0]
],
  "dcmmeta_reorient_transform": [
    [0.0, -1.0, 0.0, 63.0],
    [1.0, 0.0, 0.0, 0.0],
    [0.0, 0.0, 1.0, 0.0],
    [0.0, 0.0, 0.0, 1.0]
],
  "dcmmeta_shape": [64, 64, 30, 514],
  "dcmmeta_slice_dim": 2,
  "dcmmeta_version": 0.6,
  "global": {
    "const": {
      "AcquisitionMatrix": [0, 64, 64, 0],
      "AngioFlag": "N",
      "BitsAllocated": 16,
      "BitsStored": 12,
      "BodyPartExamined": "BRAIN",
      "Columns": 384,
      "EchoNumbers": 1,
      "EchoTime": 30.0,
      "EchoTrainLength": 64,
      "FlipAngle": 90.0,
      "HighBit": 11,
      "ImageOrientationPatient": [0.99951702245174, -0.0093098298664, 0.02964875877795, 0.01046730060325, 0.9991794364623, -0.0391265813604],
      "ImagePositionPatient": [-578.46137304522, -550.96448827837, -64.333781089454],
      "ImageType": [
        "ORIGINAL",
        "PRIMARY",
        "M",
        "ND",
        "MOSAIC"
],
      "ImagedNucleus": "1H",
      "ImagingFrequency": 123.20019,
      "InPlanePhaseEncodingDirection": "ROW",
      "MRAcquisitionType": "2D",
      "MagneticFieldStrength": 3.0,
      "Manufacturer": "SIEMENS",
      "ManufacturerModelName": "Skyra",
      "Modality": "MR",
      "NumberOfAverages": 1.0,
      "NumberOfPhaseEncodingSteps": 64,
      "PercentPhaseFieldOfView": 100.0,
      "PercentSampling": 100.0,
      "PerformedProcedureStepStartTime": "151828.084000",
      "PhotometricInterpretation": "MONOCHROME2",
      "PixelBandwidth": 1815.0,
      "PixelRepresentation": 0,
      "PixelSpacing": [3.0, 3.0],
      "ProtocolName": "EPI_DGIST_1",
      "RepetitionTime": 2000.0,
      "Rows": 384,
      "SAR": 0.11922097786784,
      "SamplesPerPixel": 1,
      "ScanOptions": "FS",
      "ScanningSequence": "EP",
      "SequenceName": "*epfid2d1_64",
      "SequenceVariant": "SK",
      "SeriesDescription": "EPI_DGIST_1",
      "SeriesNumber": 2,
      "SeriesTime": "152302.212000",
      "SliceLocation": -69.048269832368,
      "SliceThickness": 4.0,
      "SmallestImagePixelValue": 0,
      "SoftwareVersions": "syngo MR D13C",
      "SpacingBetweenSlices": 4.8000002088954,
      "SpecificCharacterSet": "ISO_IR 100",
      "StudyID": "1",
      "StudyTime": "151828.023000",
      "TimeOfLastCalibration": ["123723.000000", "123723.000000"],
      "TransmitCoilName": "Body",
      "VariableFlipAngleFlag": "N",
      "WindowCenterWidthExplanation": "Algo1",
      "dBdt": 0.0},
    "slices": {}
  },
  "time": {
    "samples": {
      "AcquisitionNumber": [1, 2, 3, 4, 5, 6, 7, 8, 9, 10, 11, 12, 13, 14, 15, 16, 17, 18, 19, 20, 21, 22, 23, 24, 25, 26, 27, 28, 29, 30, 31, 32, 33, 34, 35, 36, 37, 38, 39, 40, 41, 42, 43, 44, 45, 46, 47, 48, 49, 50, 51, 52, 53, 54, 55, 56, 57, 58, 59, 60, 61, 62, 63, 64, 65, 66, 67, 68, 69, 70, 71, 72, 73, 74, 75, 76, 77, 78, 79, 80, 81, 82, 83, 84, 85, 86, 87, 88, 89, 90, 91, 92, 93, 94, 95, 96, 97, 98, 99, 100, 101, 102, 103, 104, 105, 106, 107, 108, 109, 110, 111, 112, 113, 114, 115, 116, 117, 118, 119, 120, 121, 122, 123, 124, 125, 126, 127, 128, 129, 130, 131, 132, 133, 134, 135, 136, 137, 138, 139, 140, 141, 142, 143, 144, 145, 146, 147, 148, 149, 150, 151, 152, 153, 154, 155, 156, 157, 158, 159, 160, 161, 162, 163, 164, 165, 166, 167, 168, 169, 170, 171, 172, 173, 174, 175, 176, 177, 178, 179, 180, 181, 182, 183, 184, 185, 186, 187, 188, 189, 190, 191, 192, 193, 194, 195, 196, 197, 198, 199, 200, 201, 202, 203, 204, 205, 206, 207, 208, 209, 210, 211, 212, 213, 214, 215, 216, 217, 218, 219, 220, 221, 222, 223, 224, 225, 226, 227, 228, 229, 230, 231, 232, 233, 234, 235, 236, 237, 238, 239, 240, 241, 242, 243, 244, 245, 246, 247, 248, 249, 250, 251, 252, 253, 254, 255, 256, 257, 258, 259, 260, 261, 262, 263, 264, 265, 266, 267, 268, 269, 270, 271, 272, 273, 274, 275, 276, 277, 278, 279, 280, 281, 282, 283, 284, 285, 286, 287, 288, 289, 290, 291, 292, 293, 294, 295, 296, 297, 298, 299, 300, 301, 302, 303, 304, 305, 306, 307, 308, 309, 310, 311, 312, 313, 314, 315, 316, 317, 318, 319, 320, 321, 322, 323, 324, 325, 326, 327, 328, 329, 330, 331, 332, 333, 334, 335, 336, 337, 338, 339, 340, 341, 342, 343, 344, 345, 346, 347, 348, 349, 350, 351, 352, 353, 354, 355, 356, 357, 358, 359, 360, 361, 362, 363, 364, 365, 366, 367, 368, 369, 370, 371, 372, 373, 374, 375, 376, 377, 378, 379, 380, 381, 382, 383, 384, 385, 386, 387, 388, 389, 390, 391, 392, 393, 394, 395, 396, 397, 398, 399, 400, 401, 402, 403, 404, 405, 406, 407, 408, 409, 410, 411, 412, 413, 414, 415, 416, 417, 418, 419, 420, 421, 422, 423, 424, 425, 426, 427, 428, 429, 430, 431, 432, 433, 434, 435, 436, 437, 438, 439, 440, 441, 442, 443, 444, 445, 446, 447, 448, 449, 450, 451, 452, 453, 454, 455, 456, 457, 458, 459, 460, 461, 462, 463, 464, 465, 466, 467, 468, 469, 470, 471, 472, 473, 474, 475, 476, 477, 478, 479, 480, 481, 482, 483, 484, 485, 486, 487, 488, 489, 490, 491, 492, 493, 494, 495, 496, 497, 498, 499, 500, 501, 502, 503, 504, 505, 506, 507, 508, 509, 510, 511, 512, 513, 514],
      "AcquisitionTime": ["152208.507500", "152210.507500", "152212.507500", "152214.507500", "152216.507500", "152218.507500", "152220.507500", "152222.507500", "152224.507500", "152226.507500", "152228.507500", "152230.507500", "152232.507500", "152234.507500", "152236.507500", "152238.507500", "152240.507500", "152242.507500", "152244.507500", "152246.507500", "152248.507500", "152250.507500", "152252.507500", "152254.507500", "152256.507500", "152258.507500", "152300.507500", "152302.507500", "152304.507500", "152306.507500", "152308.507500", "152310.507500", "152312.507500", "152314.507500", "152316.507500", "152318.507500", "152320.507500", "152322.507500", "152324.507500", "152326.507500", "152328.507500", "152330.507500", "152332.507500", "152334.507500", "152336.507500", "152338.507500", "152340.507500", "152342.507500", "152344.507500", "152346.507500", "152348.507500", "152350.507500", "152352.507500", "152354.507500", "152356.507500", "152358.507500", "152400.507500", "152402.507500", "152404.507500", "152406.507500", "152408.507500", "152410.507500", "152412.507500", "152414.507500", "152416.507500", "152418.507500", "152420.507500", "152422.507500", "152424.507500", "152426.507500", "152428.507500", "152430.507500", "152432.507500", "152434.507500", "152436.507500", "152438.507500", "152440.507500", "152442.507500", "152444.507500", "152446.507500", "152448.507500", "152450.507500", "152452.507500", "152454.507500", "152456.507500", "152458.507500", "152500.507500", "152502.507500", "152504.507500", "152506.507500", "152508.507500", "152510.507500", "152512.507500", "152514.507500", "152516.507500", "152518.507500", "152520.507500", "152522.507500", "152524.507500", "152526.507500", "152528.507500", "152530.507500", "152532.507500", "152534.507500", "152536.507500", "152538.507500", "152540.507500", "152542.507500", "152544.507500", "152546.507500", "152548.507500", "152550.507500", "152552.507500", "152554.507500", "152556.507500", "152558.507500", "152600.507500", "152602.507500", "152604.507500", "152606.507500", "152608.507500", "152610.507500", "152612.507500", "152614.507500", "152616.507500", "152618.507500", "152620.507500", "152622.507500", "152624.507500", "152626.507500", "152628.507500", "152630.507500", "152632.507500", "152634.507500", "152636.507500", "152638.507500", "152640.507500", "152642.507500", "152644.507500", "152646.507500", "152648.507500", "152650.507500", "152652.507500", "152654.507500", "152656.507500", "152658.507500", "152700.507500", "152702.507500", "152704.507500", "152706.507500", "152708.507500", "152710.507500", "152712.507500", "152714.507500", "152716.507500", "152718.507500", "152720.507500", "152722.507500", "152724.507500", "152726.507500", "152728.507500", "152730.507500", "152732.507500", "152734.507500", "152736.507500", "152738.507500", "152740.507500", "152742.507500", "152744.507500", "152746.507500", "152748.507500", "152750.507500", "152752.507500", "152754.507500", "152756.507500", "152758.507500", "152800.507500", "152802.507500", "152804.507500", "152806.507500", "152808.507500", "152810.507500", "152812.507500", "152814.507500", "152816.507500", "152818.507500", "152820.507500", "152822.507500", "152824.507500", "152826.507500", "152828.507500", "152830.507500", "152832.507500", "152834.507500", "152836.507500", "152838.507500", "152840.507500", "152842.507500", "152844.507500", "152846.507500", "152848.507500", "152850.507500", "152852.507500", "152854.507500", "152856.507500", "152858.507500", "152900.507500", "152902.507500", "152904.507500", "152906.507500", "152908.507500", "152910.507500", "152912.507500", "152914.507500", "152916.507500", "152918.507500", "152920.507500", "152922.507500", "152924.507500", "152926.507500", "152928.507500", "152930.510000", "152932.510000", "152934.510000", "152936.510000", "152938.510000", "152940.510000", "152942.510000", "152944.510000", "152946.510000", "152948.510000", "152950.510000", "152952.510000", "152954.510000", "152956.510000", "152958.510000", "153000.510000", "153002.510000", "153004.510000", "153006.510000", "153008.510000", "153010.510000", "153012.510000", "153014.510000", "153016.510000", "153018.510000", "153020.510000", "153022.510000", "153024.510000", "153026.510000", "153028.510000", "153030.510000", "153032.510000", "153034.510000", "153036.510000", "153038.510000", "153040.510000", "153042.510000", "153044.510000", "153046.510000", "153048.510000", "153050.510000", "153052.510000", "153054.510000", "153056.510000", "153058.510000", "153100.510000", "153102.510000", "153104.510000", "153106.510000", "153108.510000", "153110.510000", "153112.510000", "153114.510000", "153116.510000", "153118.510000", "153120.510000", "153122.510000", "153124.510000", "153126.510000", "153128.510000", "153130.510000", "153132.510000", "153134.510000", "153136.510000", "153138.510000", "153140.510000", "153142.510000", "153144.510000", "153146.510000", "153148.510000", "153150.510000", "153152.510000", "153154.510000", "153156.510000", "153158.510000", "153200.510000", "153202.510000", "153204.510000", "153206.510000", "153208.510000", "153210.510000", "153212.510000", "153214.510000", "153216.510000", "153218.510000", "153220.510000", "153222.510000", "153224.510000", "153226.510000", "153228.510000", "153230.510000", "153232.510000", "153234.510000", "153236.510000", "153238.510000", "153240.510000", "153242.510000", "153244.510000", "153246.510000", "153248.510000", "153250.510000", "153252.510000", "153254.510000", "153256.510000", "153258.510000", "153300.510000", "153302.510000", "153304.510000", "153306.510000", "153308.510000", "153310.510000", "153312.510000", "153314.510000", "153316.510000", "153318.510000", "153320.510000", "153322.510000", "153324.510000", "153326.510000", "153328.510000", "153330.510000", "153332.510000", "153334.510000", "153336.510000", "153338.510000", "153340.510000", "153342.510000", "153344.510000", "153346.510000", "153348.510000", "153350.510000", "153352.510000", "153354.510000", "153356.510000", "153358.510000", "153400.510000", "153402.510000", "153404.510000", "153406.510000", "153408.510000", "153410.510000", "153412.510000", "153414.510000", "153416.510000", "153418.510000", "153420.510000", "153422.510000", "153424.510000", "153426.510000", "153428.510000", "153430.510000", "153432.510000", "153434.510000", "153436.510000", "153438.510000", "153440.510000", "153442.510000", "153444.510000", "153446.510000", "153448.510000", "153450.510000", "153452.510000", "153454.510000", "153456.510000", "153458.510000", "153500.510000", "153502.510000", "153504.510000", "153506.510000", "153508.510000", "153510.510000", "153512.510000", "153514.510000", "153516.510000", "153518.510000", "153520.510000", "153522.510000", "153524.510000", "153526.510000", "153528.510000", "153530.510000", "153532.510000", "153534.510000", "153536.510000", "153538.510000", "153540.510000", "153542.510000", "153544.510000", "153546.510000", "153548.510000", "153550.510000", "153552.510000", "153554.510000", "153556.510000", "153558.510000", "153600.510000", "153602.510000", "153604.510000", "153606.510000", "153608.510000", "153610.510000", "153612.510000", "153614.510000", "153616.510000", "153618.510000", "153620.510000", "153622.510000", "153624.510000", "153626.510000", "153628.510000", "153630.510000", "153632.510000", "153634.510000", "153636.510000", "153638.510000", "153640.510000", "153642.510000", "153644.510000", "153646.510000", "153648.510000", "153650.510000", "153652.510000", "153654.510000", "153656.510000", "153658.510000", "153700.510000", "153702.510000", "153704.510000", "153706.510000", "153708.510000", "153710.510000", "153712.510000", "153714.510000", "153716.510000", "153718.510000", "153720.510000", "153722.510000", "153724.510000", "153726.510000", "153728.510000", "153730.510000", "153732.510000", "153734.510000", "153736.510000", "153738.510000", "153740.510000", "153742.510000", "153744.510000", "153746.510000", "153748.510000", "153750.512500", "153752.512500", "153754.512500", "153756.512500", "153758.512500", "153800.512500", "153802.512500", "153804.512500", "153806.512500", "153808.512500", "153810.512500", "153812.512500", "153814.512500", "153816.512500", "153818.512500", "153820.512500", "153822.512500", "153824.512500", "153826.512500", "153828.512500", "153830.512500", "153832.512500", "153834.512500", "153836.512500", "153838.512500", "153840.512500", "153842.512500", "153844.512500", "153846.512500", "153848.512500", "153850.512500", "153852.512500", "153854.512500", "153856.512500", "153858.512500", "153900.512500", "153902.512500", "153904.512500", "153906.512500", "153908.512500", "153910.512500", "153912.512500", "153914.512500"],
      "ContentTime": ["152302.215000", "152302.217000", "152302.219000", "152302.221000", "152302.223000", "152302.225000", "152302.227000", "152302.229000", "152302.231000", "152302.233000", "152302.235000", "152302.237000", "152302.239000", "152302.241000", "152302.243000", "152302.245000", "152302.246000", "152302.248000", "152302.250000", "152302.252000", "152302.258000", "152302.260000", "152302.262000", "152302.264000", "152302.266000", "152302.268000", "152302.270000", "152342.210000", "152342.212000", "152342.214000", "152342.216000", "152342.218000", "152342.220000", "152342.222000", "152342.224000", "152342.226000", "152342.228000", "152342.230000", "152342.232000", "152342.234000", "152342.236000", "152342.238000", "152342.240000", "152342.242000", "152342.244000", "152342.246000", "152342.247000", "152422.210000", "152422.212000", "152422.214000", "152422.216000", "152422.218000", "152422.220000", "152422.222000", "152422.224000", "152422.226000", "152422.228000", "152422.230000", "152422.232000", "152422.234000", "152422.235000", "152422.237000", "152422.239000", "152422.241000", "152422.243000", "152422.245000", "152422.247000", "152502.210000", "152502.212000", "152502.214000", "152502.216000", "152502.218000", "152502.220000", "152502.222000", "152502.224000", "152502.226000", "152502.228000", "152502.230000", "152502.232000", "152502.234000", "152502.236000", "152502.238000", "152502.239000", "152502.241000", "152502.243000", "152502.245000", "152502.247000", "152542.211000", "152542.213000", "152542.215000", "152542.217000", "152542.219000", "152542.221000", "152542.223000", "152542.225000", "152542.227000", "152542.229000", "152542.231000", "152542.233000", "152542.235000", "152542.237000", "152542.239000", "152542.241000", "152542.243000", "152542.244000", "152542.246000", "152542.266000", "152622.210000", "152622.212000", "152622.214000", "152622.216000", "152622.218000", "152622.220000", "152622.222000", "152622.224000", "152622.226000", "152622.228000", "152622.230000", "152622.232000", "152622.234000", "152622.236000", "152622.238000", "152622.239000", "152622.241000", "152622.243000", "152622.245000", "152622.247000", "152702.210000", "152702.212000", "152702.214000", "152702.216000", "152702.226000", "152702.228000", "152702.230000", "152702.232000", "152702.234000", "152702.236000", "152702.238000", "152702.240000", "152702.242000", "152702.244000", "152702.246000", "152702.248000", "152702.250000", "152702.252000", "152702.254000", "152702.256000", "152742.210000", "152742.212000", "152742.214000", "152742.216000", "152742.218000", "152742.220000", "152742.222000", "152742.224000", "152742.226000", "152742.228000", "152742.230000", "152742.232000", "152742.234000", "152742.236000", "152742.238000", "152742.240000", "152742.242000", "152742.244000", "152742.245000", "152742.247000", "152822.210000", "152822.212000", "152822.214000", "152822.216000", "152822.218000", "152822.220000", "152822.222000", "152822.224000", "152822.226000", "152822.228000", "152822.230000", "152822.232000", "152822.234000", "152822.236000", "152822.238000", "152822.240000", "152822.242000", "152822.244000", "152822.246000", "152822.248000", "152902.210000", "152902.212000", "152902.214000", "152902.216000", "152902.218000", "152902.220000", "152902.222000", "152902.224000", "152902.226000", "152902.228000", "152902.230000", "152902.232000", "152902.234000", "152902.236000", "152902.238000", "152902.240000", "152902.242000", "152902.244000", "152902.246000", "152902.248000", "152942.210000", "152942.212000", "152942.214000", "152942.216000", "152942.218000", "152942.220000", "152942.222000", "152942.224000", "152942.226000", "152942.228000", "152942.230000", "152942.232000", "152942.234000", "152942.236000", "152942.238000", "152942.240000", "152942.242000", "152942.244000", "152942.245000", "152942.247000", "153022.210000", "153022.212000", "153022.214000", "153022.216000", "153022.218000", "153022.220000", "153022.222000", "153022.224000", "153022.226000", "153022.228000", "153022.230000", "153022.232000", "153022.234000", "153022.236000", "153022.238000", "153022.240000", "153022.242000", "153022.244000", "153022.246000", "153022.247000", "153102.210000", "153102.212000", "153102.214000", "153102.216000", "153102.218000", "153102.220000", "153102.222000", "153102.224000", "153102.226000", "153102.228000", "153102.230000", "153102.232000", "153102.234000", "153102.236000", "153102.238000", "153102.240000", "153102.242000", "153102.244000", "153102.246000", "153102.248000", "153142.210000", "153142.212000", "153142.214000", "153142.216000", "153142.218000", "153142.220000", "153142.222000", "153142.224000", "153142.226000", "153142.228000", "153142.230000", "153142.232000", "153142.237000", "153142.239000", "153142.241000", "153142.243000", "153142.245000", "153142.247000", "153142.249000", "153142.251000", "153222.210000", "153222.212000", "153222.214000", "153222.216000", "153222.218000", "153222.220000", "153222.222000", "153222.224000", "153222.226000", "153222.228000", "153222.230000", "153222.232000", "153222.234000", "153222.236000", "153222.238000", "153222.240000", "153222.242000", "153222.244000", "153222.246000", "153222.248000", "153302.210000", "153302.212000", "153302.214000", "153302.216000", "153302.218000", "153302.220000", "153302.222000", "153302.224000", "153302.226000", "153302.228000", "153302.230000", "153302.232000", "153302.234000", "153302.236000", "153302.238000", "153302.240000", "153302.242000", "153302.244000", "153302.246000", "153302.248000", "153342.210000", "153342.212000", "153342.214000", "153342.216000", "153342.218000", "153342.220000", "153342.222000", "153342.224000", "153342.226000", "153342.228000", "153342.230000", "153342.232000", "153342.234000", "153342.236000", "153342.238000", "153342.240000", "153342.242000", "153342.244000", "153342.246000", "153342.248000", "153422.210000", "153422.212000", "153422.214000", "153422.216000", "153422.218000", "153422.220000", "153422.222000", "153422.224000", "153422.226000", "153422.228000", "153422.230000", "153422.232000", "153422.234000", "153422.236000", "153422.238000", "153422.240000", "153422.242000", "153422.244000", "153422.246000", "153422.248000", "153502.210000", "153502.212000", "153502.214000", "153502.216000", "153502.218000", "153502.220000", "153502.222000", "153502.224000", "153502.226000", "153502.228000", "153502.230000", "153502.232000", "153502.234000", "153502.236000", "153502.238000", "153502.240000", "153502.242000", "153502.244000", "153502.246000", "153502.248000", "153542.210000", "153542.212000", "153542.214000", "153542.216000", "153542.218000", "153542.220000", "153542.222000", "153542.224000", "153542.226000", "153542.228000", "153542.230000", "153542.232000", "153542.234000", "153542.236000", "153542.238000", "153542.240000", "153542.242000", "153542.244000", "153542.246000", "153542.248000", "153622.210000", "153622.212000", "153622.214000", "153622.216000", "153622.218000", "153622.220000", "153622.222000", "153622.224000", "153622.226000", "153622.228000", "153622.230000", "153622.232000", "153622.234000", "153622.236000", "153622.238000", "153622.240000", "153622.242000", "153622.244000", "153622.246000", "153622.248000", "153702.210000", "153702.212000", "153702.214000", "153702.216000", "153702.218000", "153702.220000", "153702.222000", "153702.224000", "153702.226000", "153702.228000", "153702.230000", "153702.232000", "153702.234000", "153702.236000", "153702.238000", "153702.240000", "153702.242000", "153702.244000", "153702.246000", "153702.248000", "153742.210000", "153742.212000", "153742.214000", "153742.216000", "153742.218000", "153742.220000", "153742.222000", "153742.224000", "153742.226000", "153742.228000", "153742.230000", "153742.232000", "153742.234000", "153742.236000", "153742.238000", "153742.240000", "153742.242000", "153742.244000", "153742.246000", "153742.248000", "153822.210000", "153822.212000", "153822.214000", "153822.216000", "153822.218000", "153822.220000", "153822.222000", "153822.224000", "153822.226000", "153822.228000", "153822.230000", "153822.232000", "153822.234000", "153822.236000", "153822.238000", "153822.240000", "153822.242000", "153822.244000", "153822.246000", "153822.248000", "153902.210000", "153902.212000", "153902.214000", "153902.216000", "153902.218000", "153902.220000", "153902.222000", "153902.224000", "153902.226000", "153902.228000", "153902.230000", "153902.232000", "153902.234000", "153902.236000", "153902.238000", "153902.240000", "153902.242000", "153902.244000", "153902.246000", "153902.248000", "153916.017000", "153916.019000", "153916.021000", "153916.023000", "153916.025000", "153916.027000", "153916.029000"],
