{
  "AcquisitionMatrixPE": 64,
  "AcquisitionNumber": 1,
  "AcquisitionTime": "09:56:13.457500",
  "BandwidthPerPixelPhaseEncode": 25.202,
  "BaseResolution": 64,
  "BodyPartExamined": "BRAIN",
  "ConsistencyInfo": "N4_VD13C_LATEST_20121124",
  "ConversionSoftware": "dcm2niix",
  "ConversionSoftwareVersion": "v1.0.20201102",
  "DerivedVendorReportedEchoSpacing": 0.00061999,
  "DeviceSerialNumber": "45758",
  "DwellTime": 4.3e-06,
  "EchoTime": 0.03,
  "EchoTrainLength": 64,
  "EffectiveEchoSpacing": 0.00061999,
  "FlipAngle": 90,
  "ImageOrientationPatientDICOM": [0.998721, 0.0276539, -0.0423286, -0.0278968, 0.999597, -0.00515844],
  "ImageType": [
    "ORIGINAL",
    "PRIMARY",
    "M",
    "ND",
    "MOSAIC"
],
  "ImagingFrequency": 123.2,
  "InPlanePhaseEncodingDirectionDICOM": "ROW",
  "InstitutionAddress": "Street StreetNo,City /652E4B/,District,KR,ZIP",
  "InstitutionName": "DGMIF",
  "InstitutionalDepartmentName": "Department",
  "MRAcquisitionType": "2D",
  "MagneticFieldStrength": 3,
  "Manufacturer": "Siemens",
  "ManufacturersModelName": "Skyra",
  "Modality": "MR",
  "PartialFourier": 1,
  "PatientPosition": "HFS",
  "PercentPhaseFOV": 100,
  "PercentSampling": 100,
  "PhaseEncodingDirection": "i",
  "PhaseEncodingSteps": 64,
  "PhaseResolution": 1,
  "PixelBandwidth": 1815,
  "ProcedureStepDescription": "DGMIF^DGIST_Jeon",
  "ProtocolName": "EPI_DGIST_2",
  "PulseSequenceDetails": "%SiemensSeq%\\ep2d_bold",
  "ReceiveCoilActiveElements": "HC1-7",
  "ReceiveCoilName": "HeadNeck_64",
  "ReconMatrixPE": 64,
  "RepetitionTime": 2,
  "SAR": 0.109237,
  "ScanOptions": "FS",
  "ScanningSequence": "EP",
  "SequenceName": "*epfid2d1_64",
  "SequenceVariant": "SK",
  "SeriesDescription": "EPI_DGIST_2",
  "SeriesNumber": 3,
  "ShimSetting": [-9769, -13682, -8124, 261, -363, -125, -421, -43],
  "SliceThickness": 4,
  "SliceTiming": [0.99, 0, 1.055, 0.065, 1.1225, 0.1325, 1.1875, 0.1975, 1.2525, 0.265, 1.32, 0.33, 1.385, 0.395, 1.4525, 0.4625, 1.5175, 0.5275, 1.5825, 0.595, 1.65, 0.66, 1.715, 0.725, 1.7825, 0.7925, 1.8475, 0.8575, 1.9125, 0.9225],
  "SoftwareVersions": "syngo MR D13C",
  "SpacingBetweenSlices": 4.8,
  "StationName": "AWP45758",
  "TaskName": "asrt",
  "TotalReadoutTime": 0.0390594,
  "TxRefAmp": 310.945,
  "dcmmeta_affine": [
    [-2.9961628913879395, -0.08369040489196777, -0.2024107277393341, 101.12109375],
    [-0.08296170830726624, 2.9987924098968506, -0.0303968396037817, -118.47887420654297],
    [-0.12698577344417572, 0.015475320629775524, 4.7956342697143555, -61.550880432128906],
    [0.0, 0.0, 0.0, 1.0]
],
  "dcmmeta_reorient_transform": [
    [0.0, -1.0, 0.0, 63.0],
    [1.0, 0.0, 0.0, 0.0],
    [0.0, 0.0, 1.0, 0.0],
    [0.0, 0.0, 0.0, 1.0]
],
  "dcmmeta_shape": [64, 64, 30, 364],
  "dcmmeta_slice_dim": 2,
  "dcmmeta_version": 0.6,
  "global": {
    "const": {
      "AcquisitionMatrix": [0, 64, 64, 0],
      "AngioFlag": "N",
      "BitsAllocated": 16,
      "BitsStored": 12,
      "BodyPartExamined": "BRAIN",
      "Columns": 384,
      "EchoNumbers": 1,
      "EchoTime": 30.0,
      "EchoTrainLength": 64,
      "FlipAngle": 90.0,
      "HighBit": 11,
      "ImageOrientationPatient": [0.99872095813289, 0.02765390288808, -0.0423285889344, -0.0278968028276, 0.99959749843898, -0.0051584403193],
      "ImagePositionPatient": [-561.8441897456, -563.52572752877, -37.782160480898],
      "ImageType": [
        "ORIGINAL",
        "PRIMARY",
        "M",
        "ND",
        "MOSAIC"
],
      "ImagedNucleus": "1H",
      "ImagingFrequency": 123.200169,
      "InPlanePhaseEncodingDirection": "ROW",
      "MRAcquisitionType": "2D",
      "MagneticFieldStrength": 3.0,
      "Manufacturer": "SIEMENS",
      "ManufacturerModelName": "Skyra",
      "Modality": "MR",
      "NumberOfAverages": 1.0,
      "NumberOfPhaseEncodingSteps": 64,
      "PercentPhaseFieldOfView": 100.0,
      "PercentSampling": 100.0,
      "PerformedProcedureStepStartTime": "093208.375000",
      "PhotometricInterpretation": "MONOCHROME2",
      "PixelBandwidth": 1815.0,
      "PixelRepresentation": 0,
      "PixelSpacing": [3.0, 3.0],
      "ProtocolName": "EPI_DGIST_2",
      "RepetitionTime": 2000.0,
      "Rows": 384,
      "SAR": 0.10923694608862,
      "SamplesPerPixel": 1,
      "ScanOptions": "FS",
      "ScanningSequence": "EP",
      "SequenceName": "*epfid2d1_64",
      "SequenceVariant": "SK",
      "SeriesDescription": "EPI_DGIST_2",
      "SeriesNumber": 3,
      "SeriesTime": "095656.846000",
      "SliceLocation": -65.00877178486,
      "SliceThickness": 4.0,
      "SmallestImagePixelValue": 0,
      "SoftwareVersions": "syngo MR D13C",
      "SpacingBetweenSlices": 4.7999999912279,
      "SpecificCharacterSet": "ISO_IR 100",
      "StudyID": "1",
      "StudyTime": "093208.224000",
      "TimeOfLastCalibration": ["123723.000000", "123723.000000"],
      "TransmitCoilName": "Body",
      "VariableFlipAngleFlag": "N",
      "WindowCenterWidthExplanation": "Algo1",
      "dBdt": 0.0},
    "slices": {}
  },
  "time": {
    "samples": {
      "AcquisitionNumber": [1, 2, 3, 4, 5, 6, 7, 8, 9, 10, 11, 12, 13, 14, 15, 16, 17, 18, 19, 20, 21, 22, 23, 24, 25, 26, 27, 28, 29, 30, 31, 32, 33, 34, 35, 36, 37, 38, 39, 40, 41, 42, 43, 44, 45, 46, 47, 48, 49, 50, 51, 52, 53, 54, 55, 56, 57, 58, 59, 60, 61, 62, 63, 64, 65, 66, 67, 68, 69, 70, 71, 72, 73, 74, 75, 76, 77, 78, 79, 80, 81, 82, 83, 84, 85, 86, 87, 88, 89, 90, 91, 92, 93, 94, 95, 96, 97, 98, 99, 100, 101, 102, 103, 104, 105, 106, 107, 108, 109, 110, 111, 112, 113, 114, 115, 116, 117, 118, 119, 120, 121, 122, 123, 124, 125, 126, 127, 128, 129, 130, 131, 132, 133, 134, 135, 136, 137, 138, 139, 140, 141, 142, 143, 144, 145, 146, 147, 148, 149, 150, 151, 152, 153, 154, 155, 156, 157, 158, 159, 160, 161, 162, 163, 164, 165, 166, 167, 168, 169, 170, 171, 172, 173, 174, 175, 176, 177, 178, 179, 180, 181, 182, 183, 184, 185, 186, 187, 188, 189, 190, 191, 192, 193, 194, 195, 196, 197, 198, 199, 200, 201, 202, 203, 204, 205, 206, 207, 208, 209, 210, 211, 212, 213, 214, 215, 216, 217, 218, 219, 220, 221, 222, 223, 224, 225, 226, 227, 228, 229, 230, 231, 232, 233, 234, 235, 236, 237, 238, 239, 240, 241, 242, 243, 244, 245, 246, 247, 248, 249, 250, 251, 252, 253, 254, 255, 256, 257, 258, 259, 260, 261, 262, 263, 264, 265, 266, 267, 268, 269, 270, 271, 272, 273, 274, 275, 276, 277, 278, 279, 280, 281, 282, 283, 284, 285, 286, 287, 288, 289, 290, 291, 292, 293, 294, 295, 296, 297, 298, 299, 300, 301, 302, 303, 304, 305, 306, 307, 308, 309, 310, 311, 312, 313, 314, 315, 316, 317, 318, 319, 320, 321, 322, 323, 324, 325, 326, 327, 328, 329, 330, 331, 332, 333, 334, 335, 336, 337, 338, 339, 340, 341, 342, 343, 344, 345, 346, 347, 348, 349, 350, 351, 352, 353, 354, 355, 356, 357, 358, 359, 360, 361, 362, 363, 364],
      "AcquisitionTime": ["095613.457500", "095615.457500", "095617.457500", "095619.457500", "095621.457500", "095623.457500", "095625.457500", "095627.457500", "095629.457500", "095631.457500", "095633.457500", "095635.457500", "095637.457500", "095639.457500", "095641.457500", "095643.457500", "095645.457500", "095647.457500", "095649.457500", "095651.457500", "095653.457500", "095655.457500", "095657.457500", "095659.457500", "095701.457500", "095703.457500", "095705.457500", "095707.457500", "095709.457500", "095711.457500", "095713.457500", "095715.457500", "095717.457500", "095719.457500", "095721.457500", "095723.457500", "095725.457500", "095727.457500", "095729.457500", "095731.457500", "095733.457500", "095735.457500", "095737.457500", "095739.457500", "095741.457500", "095743.457500", "095745.457500", "095747.457500", "095749.457500", "095751.457500", "095753.457500", "095755.457500", "095757.457500", "095759.457500", "095801.457500", "095803.457500", "095805.457500", "095807.457500", "095809.457500", "095811.457500", "095813.457500", "095815.457500", "095817.457500", "095819.457500", "095821.457500", "095823.457500", "095825.457500", "095827.457500", "095829.457500", "095831.457500", "095833.457500", "095835.457500", "095837.457500", "095839.457500", "095841.457500", "095843.457500", "095845.457500", "095847.457500", "095849.457500", "095851.457500", "095853.457500", "095855.457500", "095857.457500", "095859.457500", "095901.457500", "095903.457500", "095905.457500", "095907.457500", "095909.457500", "095911.457500", "095913.457500", "095915.457500", "095917.457500", "095919.457500", "095921.457500", "095923.457500", "095925.457500", "095927.457500", "095929.457500", "095931.457500", "095933.457500", "095935.457500", "095937.457500", "095939.457500", "095941.457500", "095943.457500", "095945.457500", "095947.457500", "095949.457500", "095951.457500", "095953.457500", "095955.457500", "095957.457500", "095959.457500", "100001.457500", "100003.457500", "100005.457500", "100007.457500", "100009.457500", "100011.457500", "100013.457500", "100015.457500", "100017.457500", "100019.457500", "100021.457500", "100023.457500", "100025.457500", "100027.457500", "100029.457500", "100031.457500", "100033.457500", "100035.457500", "100037.457500", "100039.457500", "100041.457500", "100043.457500", "100045.457500", "100047.457500", "100049.457500", "100051.457500", "100053.457500", "100055.457500", "100057.457500", "100059.457500", "100101.457500", "100103.457500", "100105.457500", "100107.457500", "100109.457500", "100111.457500", "100113.457500", "100115.457500", "100117.457500", "100119.457500", "100121.457500", "100123.457500", "100125.460000", "100127.460000", "100129.460000", "100131.460000", "100133.460000", "100135.460000", "100137.460000", "100139.460000", "100141.460000", "100143.460000", "100145.460000", "100147.460000", "100149.460000", "100151.460000", "100153.460000", "100155.460000", "100157.460000", "100159.460000", "100201.460000", "100203.460000", "100205.460000", "100207.460000", "100209.460000", "100211.460000", "100213.460000", "100215.460000", "100217.460000", "100219.460000", "100221.460000", "100223.460000", "100225.460000", "100227.460000", "100229.460000", "100231.460000", "100233.460000", "100235.460000", "100237.460000", "100239.460000", "100241.460000", "100243.460000", "100245.460000", "100247.460000", "100249.460000", "100251.460000", "100253.460000", "100255.460000", "100257.460000", "100259.460000", "100301.460000", "100303.460000", "100305.460000", "100307.460000", "100309.460000", "100311.460000", "100313.460000", "100315.460000", "100317.460000", "100319.460000", "100321.460000", "100323.460000", "100325.460000", "100327.460000", "100329.460000", "100331.460000", "100333.460000", "100335.460000", "100337.460000", "100339.460000", "100341.460000", "100343.460000", "100345.460000", "100347.460000", "100349.460000", "100351.460000", "100353.460000", "100355.460000", "100357.460000", "100359.460000", "100401.460000", "100403.460000", "100405.460000", "100407.460000", "100409.460000", "100411.460000", "100413.460000", "100415.460000", "100417.460000", "100419.460000", "100421.460000", "100423.460000", "100425.460000", "100427.460000", "100429.460000", "100431.460000", "100433.460000", "100435.460000", "100437.460000", "100439.460000", "100441.460000", "100443.460000", "100445.460000", "100447.460000", "100449.460000", "100451.460000", "100453.460000", "100455.460000", "100457.460000", "100459.460000", "100501.460000", "100503.460000", "100505.460000", "100507.460000", "100509.460000", "100511.460000", "100513.460000", "100515.460000", "100517.460000", "100519.460000", "100521.460000", "100523.460000", "100525.460000", "100527.460000", "100529.460000", "100531.460000", "100533.460000", "100535.460000", "100537.460000", "100539.460000", "100541.460000", "100543.460000", "100545.460000", "100547.460000", "100549.460000", "100551.460000", "100553.460000", "100555.460000", "100557.460000", "100559.460000", "100601.460000", "100603.460000", "100605.460000", "100607.460000", "100609.460000", "100611.460000", "100613.460000", "100615.460000", "100617.460000", "100619.460000", "100621.460000", "100623.460000", "100625.460000", "100627.460000", "100629.460000", "100631.460000", "100633.460000", "100635.460000", "100637.460000", "100639.460000", "100641.460000", "100643.460000", "100645.460000", "100647.460000", "100649.460000", "100651.460000", "100653.460000", "100655.460000", "100657.460000", "100659.460000", "100701.460000", "100703.460000", "100705.460000", "100707.460000", "100709.460000", "100711.460000", "100713.460000", "100715.460000", "100717.460000", "100719.460000", "100721.460000", "100723.460000", "100725.460000", "100727.460000", "100729.460000", "100731.460000", "100733.460000", "100735.460000", "100737.460000", "100739.460000", "100741.460000", "100743.460000", "100745.460000", "100747.460000", "100749.460000", "100751.460000", "100753.460000", "100755.460000", "100757.460000", "100759.460000", "100801.460000", "100803.460000", "100805.460000", "100807.460000", "100809.460000", "100811.460000", "100813.460000", "100815.460000", "100817.460000", "100819.460000"],
      "ContentTime": ["095656.850000", "095656.853000", "095656.855000", "095656.872000", "095656.874000", "095656.876000", "095656.878000", "095656.880000", "095656.882000", "095656.883000", "095656.885000", "095656.887000", "095656.889000", "095656.891000", "095656.893000", "095656.895000", "095656.897000", "095656.899000", "095656.901000", "095656.903000", "095656.905000", "095736.844000", "095736.846000", "095736.848000", "095736.850000", "095736.852000", "095736.854000", "095736.856000", "095736.858000", "095736.860000", "095736.862000", "095736.864000", "095736.866000", "095736.868000", "095736.870000", "095736.872000", "095736.874000", "095736.876000", "095736.878000", "095736.880000", "095736.881000", "095816.844000", "095816.846000", "095816.848000", "095816.854000", "095816.856000", "095816.858000", "095816.860000", "095816.862000", "095816.864000", "095816.865000", "095816.867000", "095816.869000", "095816.871000", "095816.873000", "095816.875000", "095816.877000", "095816.879000", "095816.881000", "095816.883000", "095816.885000", "095856.844000", "095856.846000", "095856.848000", "095856.850000", "095856.852000", "095856.854000", "095856.856000", "095856.858000", "095856.860000", "095856.862000", "095856.864000", "095856.866000", "095856.868000", "095856.870000", "095856.872000", "095856.873000", "095856.875000", "095856.877000", "095856.879000", "095856.881000", "095936.843000", "095936.845000", "095936.847000", "095936.849000", "095936.851000", "095936.853000", "095936.855000", "095936.857000", "095936.859000", "095936.861000", "095936.863000", "095936.865000", "095936.867000", "095936.869000", "095936.871000", "095936.873000", "095936.875000", "095936.877000", "095936.879000", "095936.881000", "100016.844000", "100016.846000", "100016.848000", "100016.850000", "100016.852000", "100016.854000", "100016.856000", "100016.858000", "100016.860000", "100016.862000", "100016.864000", "100016.866000", "100016.868000", "100016.870000", "100016.871000", "100016.873000", "100016.875000", "100016.877000", "100016.879000", "100016.881000", "100056.844000", "100056.846000", "100056.848000", "100056.850000", "100056.852000", "100056.854000", "100056.856000", "100056.858000", "100056.860000", "100056.862000", "100056.864000", "100056.866000", "100056.868000", "100056.870000", "100056.871000", "100056.873000", "100056.875000", "100056.877000", "100056.879000", "100056.881000", "100136.844000", "100136.846000", "100136.848000", "100136.850000", "100136.852000", "100136.854000", "100136.856000", "100136.858000", "100136.860000", "100136.862000", "100136.864000", "100136.866000", "100136.868000", "100136.870000", "100136.872000", "100136.873000", "100136.875000", "100136.877000", "100136.879000", "100136.881000", "100216.844000", "100216.846000", "100216.848000", "100216.850000", "100216.852000", "100216.854000", "100216.856000", "100216.858000", "100216.860000", "100216.862000", "100216.864000", "100216.866000", "100216.868000", "100216.870000", "100216.872000", "100216.874000", "100216.875000", "100216.877000", "100216.879000", "100216.881000", "100256.844000", "100256.846000", "100256.848000", "100256.850000", "100256.852000", "100256.854000", "100256.856000", "100256.858000", "100256.860000", "100256.862000", "100256.864000", "100256.866000", "100256.868000", "100256.870000", "100256.872000", "100256.874000", "100256.876000", "100256.878000", "100256.880000", "100256.882000", "100336.844000", "100336.846000", "100336.848000", "100336.850000", "100336.852000", "100336.854000", "100336.856000", "100336.858000", "100336.860000", "100336.862000", "100336.864000", "100336.878000", "100336.880000", "100336.882000", "100336.884000", "100336.886000", "100336.888000", "100336.890000", "100336.892000", "100336.894000", "100416.843000", "100416.845000", "100416.847000", "100416.849000", "100416.851000", "100416.853000", "100416.855000", "100416.857000", "100416.859000", "100416.861000", "100416.863000", "100416.865000", "100416.867000", "100416.869000", "100416.871000", "100416.873000", "100416.875000", "100416.877000", "100416.879000", "100416.880000", "100456.844000", "100456.846000", "100456.848000", "100456.850000", "100456.852000", "100456.854000", "100456.856000", "100456.858000", "100456.860000", "100456.862000", "100456.864000", "100456.866000", "100456.868000", "100456.870000", "100456.872000", "100456.874000", "100456.876000", "100456.878000", "100456.880000", "100456.882000", "100536.844000", "100536.846000", "100536.848000", "100536.850000", "100536.852000", "100536.854000", "100536.856000", "100536.858000", "100536.860000", "100536.862000", "100536.863000", "100536.865000", "100536.867000", "100536.869000", "100536.871000", "100536.873000", "100536.875000", "100536.877000", "100536.879000", "100536.881000", "100616.844000", "100616.846000", "100616.848000", "100616.850000", "100616.852000", "100616.854000", "100616.856000", "100616.858000", "100616.860000", "100616.862000", "100616.864000", "100616.866000", "100616.868000", "100616.870000", "100616.872000", "100616.874000", "100616.876000", "100616.878000", "100616.880000", "100616.882000", "100656.844000", "100656.846000", "100656.848000", "100656.850000", "100656.852000", "100656.854000", "100656.856000", "100656.858000", "100656.860000", "100656.862000", "100656.864000", "100656.866000", "100656.868000", "100656.870000", "100656.872000", "100656.874000", "100656.876000", "100656.878000", "100656.880000", "100656.882000", "100736.844000", "100736.846000", "100736.848000", "100736.850000", "100736.852000", "100736.861000", "100736.863000", "100736.865000", "100736.867000", "100736.869000", "100736.871000", "100736.872000", "100736.874000", "100736.876000", "100736.878000", "100736.880000", "100736.882000", "100736.884000", "100736.886000", "100736.888000", "100816.844000", "100816.846000", "100816.848000", "100816.850000", "100816.852000", "100816.854000", "100816.856000", "100816.858000", "100816.860000", "100816.862000", "100816.864000", "100816.866000", "100816.868000", "100816.870000", "100816.872000", "100816.874000", "100816.876000", "100816.878000", "100816.880000", "100816.882000", "100821.427000", "100821.429000", "100821.431000"],
      "InstanceCreationTime": ["095656.850000", "095656.853000", "095656.855000", "095656.872000", "095656.874000", "095656.876000", "095656.878000", "095656.880000", "095656.882000", "095656.883000", "095656.885000", "095656.887000", "095656.889000", "095656.891000", "095656.893000", "095656.895000", "095656.897000", "095656.899000", "095656.901000", "095656.903000", "095656.905000", "095736.844000", "095736.846000", "095736.848000", "095736.850000", "095736.852000", "095736.854000", "095736.856000", "095736.858000", "095736.860000", "095736.862000", "095736.864000", "095736.866000", "095736.868000", "095736.870000", "095736.872000", "095736.874000", "095736.876000", "095736.878000", "095736.880000", "095736.881000", "095816.844000", "095816.846000", "095816.848000", "095816.854000", "095816.856000", "095816.858000", "095816.860000", "095816.862000", "095816.864000", "095816.865000", "095816.867000", "095816.869000", "095816.871000", "095816.873000", "095816.875000", "095816.877000", "095816.879000", "095816.881000", "095816.883000", "095816.885000", "095856.844000", "095856.846000", "095856.848000", "095856.850000", "095856.852000", "095856.854000", "095856.856000", "095856.858000", "095856.860000", "095856.862000", "095856.864000", "095856.866000", "095856.868000", "095856.870000", "095856.872000", "095856.873000", "095856.875000", "095856.877000", "095856.879000", "095856.881000", "095936.843000", "095936.845000", "095936.847000", "095936.849000", "095936.851000", "095936.853000", "095936.855000", "095936.857000", "095936.859000", "095936.861000", "095936.863000", "095936.865000", "095936.867000", "095936.869000", "095936.871000", "095936.873000", "095936.875000", "095936.877000", "095936.879000", "095936.881000", "100016.844000", "100016.846000", "100016.848000", "100016.850000", "100016.852000", "100016.854000", "100016.856000", "100016.858000", "100016.860000", "100016.862000", "100016.864000", "100016.866000", "100016.868000", "100016.870000", "100016.871000", "100016.873000", "100016.875000", "100016.877000", "100016.879000", "100016.881000", "100056.844000", "100056.846000", "100056.848000", "100056.850000", "100056.852000", "100056.854000", "100056.856000", "100056.858000", "100056.860000", "100056.862000", "100056.864000", "100056.866000", "100056.868000", "100056.870000", "100056.871000", "100056.873000", "100056.875000", "100056.877000", "100056.879000", "100056.881000", "100136.844000", "100136.846000", "100136.848000", "100136.850000", "100136.852000", "100136.854000", "100136.856000", "100136.858000", "100136.860000", "100136.862000", "100136.864000", "100136.866000", "100136.868000", "100136.870000", "100136.872000", "100136.873000", "100136.875000", "100136.877000", "100136.879000", "100136.881000", "100216.844000", "100216.846000", "100216.848000", "100216.850000", "100216.852000", "100216.854000", "100216.856000", "100216.858000", "100216.860000", "100216.862000", "100216.864000", "100216.866000", "100216.868000", "100216.870000", "100216.872000", "100216.874000", "100216.875000", "100216.877000", "100216.879000", "100216.881000", "100256.844000", "100256.846000", "100256.848000", "100256.850000", "100256.852000", "100256.854000", "100256.856000", "100256.858000", "100256.860000", "100256.862000", "100256.864000", "100256.866000", "100256.868000", "100256.870000", "100256.872000", "100256.874000", "100256.876000", "100256.878000", "100256.880000", "100256.882000", "100336.844000", "100336.846000", "100336.848000", "100336.850000", "100336.852000", "100336.854000", "100336.856000", "100336.858000", "100336.860000", "100336.862000", "100336.864000", "100336.878000", "100336.880000", "100336.882000", "100336.884000", "100336.886000", "100336.888000", "100336.890000", "100336.892000", "100336.894000", "100416.843000", "100416.845000", "100416.847000", "100416.849000", "100416.851000", "100416.853000", "100416.855000", "100416.857000", "100416.859000", "100416.861000", "100416.863000", "100416.865000", "100416.867000", "100416.869000", "100416.871000", "100416.873000", "100416.875000", "100416.877000", "100416.879000", "100416.880000", "100456.844000", "100456.846000", "100456.848000", "100456.850000", "100456.852000", "100456.854000", "100456.856000", "100456.858000", "100456.860000", "100456.862000", "100456.864000", "100456.866000", "100456.868000", "100456.870000", "100456.872000", "100456.874000", "100456.876000", "100456.878000", "100456.880000", "100456.882000", "100536.844000", "100536.846000", "100536.848000", "100536.850000", "100536.852000", "100536.854000", "100536.856000", "100536.858000", "100536.860000", "100536.862000", "100536.863000", "100536.865000", "100536.867000", "100536.869000", "100536.871000", "100536.873000", "100536.875000", "100536.877000", "100536.879000", "100536.881000", "100616.844000", "100616.846000", "100616.848000", "100616.850000", "100616.852000", "100616.854000", "100616.856000", "100616.858000", "100616.860000", "100616.862000", "100616.864000", "100616.866000", "100616.868000", "100616.870000", "100616.872000", "100616.874000", "100616.876000", "100616.878000", "100616.880000", "100616.882000", "100656.844000", "100656.846000", "100656.848000", "100656.850000", "100656.852000", "100656.854000", "100656.856000", "100656.858000", "100656.860000", "100656.862000", "100656.864000", "100656.866000", "100656.868000", "100656.870000", "100656.872000", "100656.874000", "100656.876000", "100656.878000", "100656.880000", "100656.882000", "100736.844000", "100736.846000", "100736.848000", "100736.850000", "100736.852000", "100736.861000", "100736.863000", "100736.865000", "100736.867000", "100736.869000", "100736.871000", "100736.872000", "100736.874000", "100736.876000", "100736.878000", "100736.880000", "100736.882000", "100736.884000", "100736.886000", "100736.888000", "100816.844000", "100816.846000", "100816.848000", "100816.850000", "100816.852000", "100816.854000", "100816.856000", "100816.858000", "100816.860000", "100816.862000", "100816.864000", "100816.866000", "100816.868000", "100816.870000", "100816.872000", "100816.874000", "100816.876000", "100816.878000", "100816.880000", "100816.882000", "100821.427000", "100821.429000", "100821.431000"],
      "InstanceNumber": [1, 2, 3, 4, 5, 6, 7, 8, 9, 10, 11, 12, 13, 14, 15, 16, 17, 18, 19, 20, 21, 22, 23, 24, 25, 26, 27, 28, 29, 30, 31, 32, 33, 34, 35, 36, 37, 38, 39, 40, 41, 42, 43, 44, 45, 46, 47, 48, 49, 50, 51, 52, 53, 54, 55, 56, 57, 58, 59, 60, 61, 62, 63, 64, 65, 66, 67, 68, 69, 70, 71, 72, 73, 74, 75, 76, 77, 78, 79, 80, 81, 82, 83, 84, 85, 86, 87, 88, 89, 90, 91, 92, 93, 94, 95, 96, 97, 98, 99, 100, 101, 102, 103, 104, 105, 106, 107, 108, 109, 110, 111, 112, 113, 114, 115, 116, 117, 118, 119, 120, 121, 122, 123, 124, 125, 126, 127, 128, 129, 130, 131, 132, 133, 134, 135, 136, 137, 138, 139, 140, 141, 142, 143, 144, 145, 146, 147, 148, 149, 150, 151, 152, 153, 154, 155, 156, 157, 158, 159, 160, 161, 162, 163, 164, 165, 166, 167, 168, 169, 170, 171, 172, 173, 174, 175, 176, 177, 178, 179, 180, 181, 182, 183, 184, 185, 186, 187, 188, 189, 190, 191, 192, 193, 194, 195, 196, 197, 198, 199, 200, 201, 202, 203, 204, 205, 206, 207, 208, 209, 210, 211, 212, 213, 214, 215, 216, 217, 218, 219, 220, 221, 222, 223, 224, 225, 226, 227, 228, 229, 230, 231, 232, 233, 234, 235, 236, 237, 238, 239, 240, 241, 242, 243, 244, 245, 246, 247, 248, 249, 250, 251, 252, 253, 254, 255, 256, 257, 258, 259, 260, 261, 262, 263, 264, 265, 266, 267, 268, 269, 270, 271, 272, 273, 274, 275, 276, 277, 278, 279, 280, 281, 282, 283, 284, 285, 286, 287, 288, 289, 290, 291, 292, 293, 294, 295, 296, 297, 298, 299, 300, 301, 302, 303, 304, 305, 306, 307, 308, 309, 310, 311, 312, 313, 314, 315, 316, 317, 318, 319, 320, 321, 322, 323, 324, 325, 326, 327, 328, 329, 330, 331, 332, 333, 334, 335, 336, 337, 338, 339, 340, 341, 342, 343, 344, 345, 346, 347, 348, 349, 350, 351, 352, 353, 354, 355, 356, 357, 358, 359, 360, 361, 362, 363, 364],
      "LargestImagePixelValue": [3429, 3367, 3308, 3294, 3280, 3285, 3279, 3246, 3245, 3236, 3212, 3233, 3194, 3194, 3193, 3198, 3228, 3220, 3223, 3213, 3188, 3195, 3155, 3170, 3166, 3167, 3165, 3149, 3135, 3124, 3133, 3212, 3124, 3145, 3117, 3166, 3166, 3146, 3106, 3113, 3125, 3152, 3129, 3127, 3143, 3136, 3160, 3106, 3124, 3125, 3144, 3151, 3127, 3106, 3109, 3131, 3143, 3121, 3122, 3112, 3102, 3102, 3118, 3149, 3116, 3116, 3109, 3098, 3093, 3103, 3103, 3100, 3105, 3099, 3107, 3102, 3125, 3122, 3119, 3112, 3116, 3107, 3104, 3103, 3112, 3123, 3117, 3127, 3112, 3113, 3110, 3105, 3107, 3091, 3113, 3128, 3133, 3143, 3136, 3146, 3143, 3131, 3123, 3135, 3137, 3128, 3134, 3131, 3122, 3135, 3136, 3141, 3132, 3125, 3139, 3155, 3138, 3152, 3137, 3124, 3134, 3145, 3122, 3108, 3158, 3149, 3130, 3131, 3110, 3128, 3128, 3133, 3133, 3126, 3149, 3145, 3140, 3144, 3137, 3149, 3155, 3147, 3154, 3152, 3133, 3141, 3141, 3154, 3145, 3168, 3132, 3105, 3137, 3112, 3126, 3134, 3127, 3141, 3120, 3133, 3138, 3128, 3131, 3116, 3119, 3122, 3124, 3122, 3129, 3142, 3142, 3129, 3135, 3143, 3149, 3140, 3130, 3134, 3142, 3149, 3135, 3118, 3113, 3137, 3120, 3147, 3128, 3139, 3134, 3131, 3121, 3127, 3146, 3163, 3149, 3145, 3138, 3140, 3147, 3156, 3137, 3141, 3148, 3150, 3143, 3140, 3121, 3137, 3149, 3135, 3132, 3103, 3119, 3099, 3124, 3142, 3135, 3119, 3120, 3117, 3128, 3128, 3149, 3154, 3146, 3145, 3139, 3141, 3155, 3159, 3158, 3139, 3154, 3150, 3132, 3134, 3146, 3141, 3145, 3157, 3156, 3132, 3133, 3118, 3152, 3166, 3152, 3137, 3135, 3133, 3149, 3134, 3133, 3140, 3144, 3143, 3147, 3149, 3138, 3143, 3164, 3165, 3153, 3152, 3153, 3169, 3155, 3149, 3153, 3157, 3125, 3118, 3123, 3125, 3141, 3155, 3163, 3166, 3154, 3146, 3137, 3155, 3151, 3146, 3159, 3165, 3153, 3162, 3153, 3170, 3167, 3155, 3154, 3150, 3138, 3146, 3149, 3148, 3142, 3156, 3128, 3108, 3087, 3094, 3124, 3143, 3130, 3148, 3134, 3142, 3147, 3149, 3147, 3143, 3142, 3152, 3150, 3154, 3157, 3149, 3163, 3155, 3170, 3165, 3156, 3161, 3174, 3162, 3160, 3165, 3153, 3177, 3147, 3124, 3167, 3156, 3146, 3154, 3136, 3148, 3130, 3153, 3149, 3155, 3165, 3167, 3161, 3165, 3154, 3174, 3172, 3164, 3162, 3168, 3156, 3163, 3161, 3161, 3168, 3169, 3165, 3142, 3144, 3136],
