{
  "AcquisitionMatrixPE": 64,
  "AcquisitionNumber": 1,
  "AcquisitionTime": "11:19:51.860000",
  "BandwidthPerPixelPhaseEncode": 25.202,
  "BaseResolution": 64,
  "BodyPartExamined": "BRAIN",
  "ConsistencyInfo": "N4_VD13C_LATEST_20121124",
  "ConversionSoftware": "dcm2niix",
  "ConversionSoftwareVersion": "v1.0.20201102",
  "DerivedVendorReportedEchoSpacing": 0.00061999,
  "DeviceSerialNumber": "45758",
  "DwellTime": 4.3e-06,
  "EchoTime": 0.03,
  "EchoTrainLength": 64,
  "EffectiveEchoSpacing": 0.00061999,
  "FlipAngle": 90,
  "ImageOrientationPatientDICOM": [0.99976, 0.0151486, 0.0158212, -0.0139602, 0.997256, -0.0726995],
  "ImageType": [
    "ORIGINAL",
    "PRIMARY",
    "M",
    "ND",
    "MOSAIC"
],
  "ImagingFrequency": 123.2,
  "InPlanePhaseEncodingDirectionDICOM": "ROW",
  "InstitutionAddress": "Street StreetNo,City /652E4B/,District,KR,ZIP",
  "InstitutionName": "DGMIF",
  "InstitutionalDepartmentName": "Department",
  "MRAcquisitionType": "2D",
  "MagneticFieldStrength": 3,
  "Manufacturer": "Siemens",
  "ManufacturersModelName": "Skyra",
  "Modality": "MR",
  "PartialFourier": 1,
  "PatientPosition": "HFS",
  "PercentPhaseFOV": 100,
  "PercentSampling": 100,
  "PhaseEncodingDirection": "i",
  "PhaseEncodingSteps": 64,
  "PhaseResolution": 1,
  "PixelBandwidth": 1815,
  "ProcedureStepDescription": "DGMIF^DGIST_Jeon",
  "ProtocolName": "EPI_DGIST_2",
  "PulseSequenceDetails": "%SiemensSeq%\\ep2d_bold",
  "ReceiveCoilActiveElements": "HC1-7",
  "ReceiveCoilName": "HeadNeck_64",
  "ReconMatrixPE": 64,
  "RepetitionTime": 2,
  "SAR": 0.131435,
  "ScanOptions": "FS",
  "ScanningSequence": "EP",
  "SequenceName": "*epfid2d1_64",
  "SequenceVariant": "SK",
  "SeriesDescription": "EPI_DGIST_2",
  "SeriesNumber": 3,
  "ShimSetting": [-9722, -13625, -8151, 129, -398, -233, -4, -256],
  "SliceThickness": 4,
  "SliceTiming": [0.99, 0, 1.0575, 0.0675, 1.1225, 0.1325, 1.1875, 0.1975, 1.255, 0.265, 1.32, 0.33, 1.3875, 0.3975, 1.4525, 0.4625, 1.5175, 0.5275, 1.585, 0.595, 1.65, 0.66, 1.7175, 0.7275, 1.7825, 0.7925, 1.8475, 0.8575, 1.915, 0.925],
  "SoftwareVersions": "syngo MR D13C",
  "SpacingBetweenSlices": 4.8,
  "StationName": "AWP45758",
  "TaskName": "asrt",
  "TotalReadoutTime": 0.0390594,
  "TxRefAmp": 314.499,
  "dcmmeta_affine": [
    [-2.9992802143096924, -0.04188057407736778, 0.0810195654630661, 95.04945373535156],
    [-0.045445799827575684, 2.9917685985565186, -0.34781378507614136, -114.44038391113281],
    [0.04746357351541519, 0.21809855103492737, 4.786696434020996, -88.77650451660156],
    [0.0, 0.0, 0.0, 1.0]
],
  "dcmmeta_reorient_transform": [
    [0.0, -1.0, 0.0, 63.0],
    [1.0, 0.0, 0.0, 0.0],
    [0.0, 0.0, 1.0, 0.0],
    [0.0, 0.0, 0.0, 1.0]
],
  "dcmmeta_shape": [64, 64, 30, 364],
  "dcmmeta_slice_dim": 2,
  "dcmmeta_version": 0.6,
  "global": {
    "const": {
      "AcquisitionMatrix": [0, 64, 64, 0],
      "AngioFlag": "N",
      "BitsAllocated": 16,
      "BitsStored": 12,
      "BodyPartExamined": "BRAIN",
      "Columns": 384,
      "EchoNumbers": 1,
      "EchoTime": 30.0,
      "EchoTrainLength": 64,
      "FlipAngle": 90.0,
      "HighBit": 11,
      "ImageOrientationPatient": [0.99976007614588, 0.01514859945917, 0.01582119082814, -0.0139601909519, 0.99725618253403, -0.0726995148969],
      "ImagePositionPatient": [-565.59492548969, -559.99532837828, -47.734697885241],
      "ImageType": [
        "ORIGINAL",
        "PRIMARY",
        "M",
        "ND",
        "MOSAIC"
],
      "ImagedNucleus": "1H",
      "ImagingFrequency": 123.200179,
      "InPlanePhaseEncodingDirection": "ROW",
      "MRAcquisitionType": "2D",
      "MagneticFieldStrength": 3.0,
      "Manufacturer": "SIEMENS",
      "ManufacturerModelName": "Skyra",
      "Modality": "MR",
      "NumberOfAverages": 1.0,
      "NumberOfPhaseEncodingSteps": 64,
      "PercentPhaseFieldOfView": 100.0,
      "PercentSampling": 100.0,
      "PerformedProcedureStepStartTime": "105252.044000",
      "PhotometricInterpretation": "MONOCHROME2",
      "PixelBandwidth": 1815.0,
      "PixelRepresentation": 0,
      "PixelSpacing": [3.0, 3.0],
      "ProtocolName": "EPI_DGIST_2",
      "RepetitionTime": 2000.0,
      "Rows": 384,
      "SAR": 0.13143544564773,
      "SamplesPerPixel": 1,
      "ScanOptions": "FS",
      "ScanningSequence": "EP",
      "SequenceName": "*epfid2d1_64",
      "SequenceVariant": "SK",
      "SeriesDescription": "EPI_DGIST_2",
      "SeriesNumber": 3,
      "SeriesTime": "112038.346000",
      "SliceLocation": -78.633612962814,
      "SliceThickness": 4.0,
      "SmallestImagePixelValue": 0,
      "SoftwareVersions": "syngo MR D13C",
      "SpacingBetweenSlices": 4.80000003653,
      "SpecificCharacterSet": "ISO_IR 100",
      "StudyID": "1",
      "StudyTime": "105251.985000",
      "TimeOfLastCalibration": ["123723.000000", "123723.000000"],
      "TransmitCoilName": "Body",
      "VariableFlipAngleFlag": "N",
      "WindowCenterWidthExplanation": "Algo1",
      "dBdt": 0.0},
    "slices": {}
  },
  "time": {
    "samples": {
      "AcquisitionNumber": [1, 2, 3, 4, 5, 6, 7, 8, 9, 10, 11, 12, 13, 14, 15, 16, 17, 18, 19, 20, 21, 22, 23, 24, 25, 26, 27, 28, 29, 30, 31, 32, 33, 34, 35, 36, 37, 38, 39, 40, 41, 42, 43, 44, 45, 46, 47, 48, 49, 50, 51, 52, 53, 54, 55, 56, 57, 58, 59, 60, 61, 62, 63, 64, 65, 66, 67, 68, 69, 70, 71, 72, 73, 74, 75, 76, 77, 78, 79, 80, 81, 82, 83, 84, 85, 86, 87, 88, 89, 90, 91, 92, 93, 94, 95, 96, 97, 98, 99, 100, 101, 102, 103, 104, 105, 106, 107, 108, 109, 110, 111, 112, 113, 114, 115, 116, 117, 118, 119, 120, 121, 122, 123, 124, 125, 126, 127, 128, 129, 130, 131, 132, 133, 134, 135, 136, 137, 138, 139, 140, 141, 142, 143, 144, 145, 146, 147, 148, 149, 150, 151, 152, 153, 154, 155, 156, 157, 158, 159, 160, 161, 162, 163, 164, 165, 166, 167, 168, 169, 170, 171, 172, 173, 174, 175, 176, 177, 178, 179, 180, 181, 182, 183, 184, 185, 186, 187, 188, 189, 190, 191, 192, 193, 194, 195, 196, 197, 198, 199, 200, 201, 202, 203, 204, 205, 206, 207, 208, 209, 210, 211, 212, 213, 214, 215, 216, 217, 218, 219, 220, 221, 222, 223, 224, 225, 226, 227, 228, 229, 230, 231, 232, 233, 234, 235, 236, 237, 238, 239, 240, 241, 242, 243, 244, 245, 246, 247, 248, 249, 250, 251, 252, 253, 254, 255, 256, 257, 258, 259, 260, 261, 262, 263, 264, 265, 266, 267, 268, 269, 270, 271, 272, 273, 274, 275, 276, 277, 278, 279, 280, 281, 282, 283, 284, 285, 286, 287, 288, 289, 290, 291, 292, 293, 294, 295, 296, 297, 298, 299, 300, 301, 302, 303, 304, 305, 306, 307, 308, 309, 310, 311, 312, 313, 314, 315, 316, 317, 318, 319, 320, 321, 322, 323, 324, 325, 326, 327, 328, 329, 330, 331, 332, 333, 334, 335, 336, 337, 338, 339, 340, 341, 342, 343, 344, 345, 346, 347, 348, 349, 350, 351, 352, 353, 354, 355, 356, 357, 358, 359, 360, 361, 362, 363, 364],
      "AcquisitionTime": ["111951.860000", "111953.860000", "111955.860000", "111957.860000", "111959.860000", "112001.860000", "112003.860000", "112005.860000", "112007.860000", "112009.860000", "112011.860000", "112013.860000", "112015.860000", "112017.860000", "112019.860000", "112021.860000", "112023.860000", "112025.860000", "112027.860000", "112029.860000", "112031.860000", "112033.860000", "112035.860000", "112037.860000", "112039.860000", "112041.860000", "112043.860000", "112045.860000", "112047.860000", "112049.860000", "112051.860000", "112053.860000", "112055.860000", "112057.860000", "112059.860000", "112101.860000", "112103.860000", "112105.860000", "112107.860000", "112109.860000", "112111.860000", "112113.860000", "112115.860000", "112117.860000", "112119.860000", "112121.860000", "112123.860000", "112125.860000", "112127.860000", "112129.860000", "112131.860000", "112133.860000", "112135.860000", "112137.860000", "112139.860000", "112141.860000", "112143.860000", "112145.860000", "112147.860000", "112149.860000", "112151.860000", "112153.860000", "112155.860000", "112157.860000", "112159.860000", "112201.860000", "112203.860000", "112205.860000", "112207.860000", "112209.860000", "112211.860000", "112213.860000", "112215.860000", "112217.860000", "112219.860000", "112221.860000", "112223.862500", "112225.862500", "112227.862500", "112229.862500", "112231.862500", "112233.862500", "112235.862500", "112237.862500", "112239.862500", "112241.862500", "112243.862500", "112245.862500", "112247.862500", "112249.862500", "112251.862500", "112253.862500", "112255.862500", "112257.862500", "112259.862500", "112301.862500", "112303.862500", "112305.862500", "112307.862500", "112309.862500", "112311.862500", "112313.862500", "112315.862500", "112317.862500", "112319.862500", "112321.862500", "112323.862500", "112325.862500", "112327.862500", "112329.862500", "112331.862500", "112333.862500", "112335.862500", "112337.862500", "112339.862500", "112341.862500", "112343.862500", "112345.862500", "112347.862500", "112349.862500", "112351.862500", "112353.862500", "112355.862500", "112357.862500", "112359.862500", "112401.862500", "112403.862500", "112405.862500", "112407.862500", "112409.862500", "112411.862500", "112413.862500", "112415.862500", "112417.862500", "112419.862500", "112421.862500", "112423.862500", "112425.862500", "112427.862500", "112429.862500", "112431.862500", "112433.862500", "112435.862500", "112437.862500", "112439.862500", "112441.862500", "112443.862500", "112445.862500", "112447.862500", "112449.862500", "112451.862500", "112453.862500", "112455.862500", "112457.862500", "112459.862500", "112501.862500", "112503.862500", "112505.862500", "112507.862500", "112509.862500", "112511.862500", "112513.862500", "112515.862500", "112517.862500", "112519.862500", "112521.862500", "112523.862500", "112525.862500", "112527.862500", "112529.862500", "112531.862500", "112533.862500", "112535.862500", "112537.862500", "112539.862500", "112541.862500", "112543.862500", "112545.862500", "112547.862500", "112549.862500", "112551.862500", "112553.862500", "112555.862500", "112557.862500", "112559.862500", "112601.862500", "112603.862500", "112605.862500", "112607.862500", "112609.862500", "112611.862500", "112613.862500", "112615.862500", "112617.862500", "112619.862500", "112621.862500", "112623.862500", "112625.862500", "112627.862500", "112629.862500", "112631.862500", "112633.862500", "112635.862500", "112637.862500", "112639.862500", "112641.862500", "112643.862500", "112645.862500", "112647.862500", "112649.862500", "112651.862500", "112653.862500", "112655.862500", "112657.862500", "112659.862500", "112701.862500", "112703.862500", "112705.862500", "112707.862500", "112709.862500", "112711.862500", "112713.862500", "112715.862500", "112717.862500", "112719.862500", "112721.862500", "112723.862500", "112725.862500", "112727.862500", "112729.862500", "112731.862500", "112733.862500", "112735.862500", "112737.862500", "112739.862500", "112741.862500", "112743.862500", "112745.862500", "112747.862500", "112749.862500", "112751.862500", "112753.862500", "112755.862500", "112757.862500", "112759.862500", "112801.862500", "112803.862500", "112805.862500", "112807.862500", "112809.862500", "112811.862500", "112813.862500", "112815.862500", "112817.862500", "112819.862500", "112821.862500", "112823.862500", "112825.862500", "112827.862500", "112829.862500", "112831.862500", "112833.862500", "112835.862500", "112837.862500", "112839.862500", "112841.862500", "112843.862500", "112845.862500", "112847.862500", "112849.862500", "112851.862500", "112853.862500", "112855.862500", "112857.862500", "112859.862500", "112901.862500", "112903.862500", "112905.862500", "112907.862500", "112909.862500", "112911.862500", "112913.862500", "112915.862500", "112917.862500", "112919.862500", "112921.862500", "112923.862500", "112925.862500", "112927.862500", "112929.862500", "112931.862500", "112933.862500", "112935.862500", "112937.862500", "112939.862500", "112941.862500", "112943.862500", "112945.862500", "112947.862500", "112949.862500", "112951.862500", "112953.862500", "112955.862500", "112957.862500", "112959.862500", "113001.862500", "113003.862500", "113005.862500", "113007.862500", "113009.862500", "113011.862500", "113013.862500", "113015.862500", "113017.862500", "113019.862500", "113021.862500", "113023.862500", "113025.862500", "113027.862500", "113029.862500", "113031.862500", "113033.862500", "113035.862500", "113037.862500", "113039.862500", "113041.862500", "113043.865000", "113045.865000", "113047.865000", "113049.865000", "113051.865000", "113053.865000", "113055.865000", "113057.865000", "113059.865000", "113101.865000", "113103.865000", "113105.865000", "113107.865000", "113109.865000", "113111.865000", "113113.865000", "113115.865000", "113117.865000", "113119.865000", "113121.865000", "113123.865000", "113125.865000", "113127.865000", "113129.865000", "113131.865000", "113133.865000", "113135.865000", "113137.865000", "113139.865000", "113141.865000", "113143.865000", "113145.865000", "113147.865000", "113149.865000", "113151.865000", "113153.865000", "113155.865000", "113157.865000"],
      "ContentTime": ["112038.349000", "112038.351000", "112038.353000", "112038.355000", "112038.357000", "112038.359000", "112038.361000", "112038.363000", "112038.366000", "112038.367000", "112038.369000", "112038.371000", "112038.374000", "112038.375000", "112038.377000", "112038.379000", "112038.382000", "112038.383000", "112038.385000", "112038.387000", "112038.390000", "112038.392000", "112038.401000", "112118.345000", "112118.348000", "112118.350000", "112118.352000", "112118.354000", "112118.356000", "112118.358000", "112118.360000", "112118.362000", "112118.364000", "112118.366000", "112118.368000", "112118.370000", "112118.372000", "112118.374000", "112118.376000", "112118.378000", "112118.380000", "112118.382000", "112118.384000", "112158.345000", "112158.347000", "112158.349000", "112158.351000", "112158.354000", "112158.356000", "112158.358000", "112158.360000", "112158.362000", "112158.364000", "112158.366000", "112158.367000", "112158.374000", "112158.376000", "112158.378000", "112158.380000", "112158.382000", "112158.384000", "112158.386000", "112158.388000", "112238.344000", "112238.346000", "112238.348000", "112238.350000", "112238.353000", "112238.355000", "112238.357000", "112238.358000", "112238.361000", "112238.363000", "112238.365000", "112238.366000", "112238.369000", "112238.371000", "112238.372000", "112238.374000", "112238.376000", "112238.378000", "112238.380000", "112238.382000", "112318.345000", "112318.347000", "112318.349000", "112318.351000", "112318.354000", "112318.356000", "112318.358000", "112318.360000", "112318.362000", "112318.364000", "112318.366000", "112318.368000", "112318.370000", "112318.372000", "112318.373000", "112318.375000", "112318.378000", "112318.379000", "112318.381000", "112318.383000", "112358.345000", "112358.347000", "112358.349000", "112358.351000", "112358.354000", "112358.356000", "112358.358000", "112358.360000", "112358.362000", "112358.364000", "112358.366000", "112358.367000", "112358.370000", "112358.380000", "112358.382000", "112358.384000", "112358.386000", "112358.388000", "112358.390000", "112358.392000", "112438.345000", "112438.347000", "112438.349000", "112438.351000", "112438.354000", "112438.356000", "112438.358000", "112438.360000", "112438.362000", "112438.364000", "112438.366000", "112438.368000", "112438.370000", "112438.372000", "112438.374000", "112438.375000", "112438.378000", "112438.380000", "112438.382000", "112438.383000", "112518.344000", "112518.346000", "112518.348000", "112518.350000", "112518.353000", "112518.367000", "112518.369000", "112518.371000", "112518.373000", "112518.375000", "112518.377000", "112518.379000", "112518.381000", "112518.383000", "112518.385000", "112518.387000", "112518.389000", "112518.391000", "112518.393000", "112518.395000", "112558.345000", "112558.347000", "112558.349000", "112558.351000", "112558.354000", "112558.356000", "112558.358000", "112558.360000", "112558.362000", "112558.364000", "112558.366000", "112558.368000", "112558.370000", "112558.372000", "112558.374000", "112558.376000", "112558.378000", "112558.380000", "112558.382000", "112558.384000", "112638.345000", "112638.347000", "112638.349000", "112638.351000", "112638.353000", "112638.355000", "112638.357000", "112638.359000", "112638.362000", "112638.364000", "112638.365000", "112638.367000", "112638.370000", "112638.372000", "112638.373000", "112638.375000", "112638.378000", "112638.380000", "112638.382000", "112638.383000", "112718.344000", "112718.347000", "112718.349000", "112718.351000", "112718.353000", "112718.355000", "112718.357000", "112718.359000", "112718.361000", "112718.363000", "112718.365000", "112718.367000", "112718.369000", "112718.371000", "112718.373000", "112718.375000", "112718.377000", "112718.379000", "112718.381000", "112718.383000", "112758.345000", "112758.347000", "112758.349000", "112758.351000", "112758.353000", "112758.355000", "112758.357000", "112758.359000", "112758.362000", "112758.364000", "112758.366000", "112758.367000", "112758.370000", "112758.372000", "112758.374000", "112758.375000", "112758.378000", "112758.380000", "112758.382000", "112758.383000", "112838.345000", "112838.347000", "112838.349000", "112838.351000", "112838.354000", "112838.356000", "112838.357000", "112838.359000", "112838.362000", "112838.364000", "112838.365000", "112838.367000", "112838.370000", "112838.372000", "112838.373000", "112838.375000", "112838.378000", "112838.379000", "112838.381000", "112838.383000", "112918.345000", "112918.347000", "112918.349000", "112918.351000", "112918.354000", "112918.356000", "112918.358000", "112918.360000", "112918.362000", "112918.364000", "112918.366000", "112918.368000", "112918.370000", "112918.372000", "112918.374000", "112918.376000", "112918.378000", "112918.380000", "112918.382000", "112918.384000", "112958.344000", "112958.346000", "112958.348000", "112958.350000", "112958.353000", "112958.355000", "112958.357000", "112958.359000", "112958.361000", "112958.363000", "112958.365000", "112958.367000", "112958.369000", "112958.371000", "112958.373000", "112958.375000", "112958.377000", "112958.379000", "112958.381000", "112958.383000", "113038.345000", "113038.347000", "113038.349000", "113038.351000", "113038.354000", "113038.356000", "113038.358000", "113038.360000", "113038.362000", "113038.364000", "113038.366000", "113038.368000", "113038.370000", "113038.372000", "113038.374000", "113038.376000", "113038.378000", "113038.380000", "113038.382000", "113038.384000", "113118.345000", "113118.347000", "113118.349000", "113118.351000", "113118.354000", "113118.356000", "113118.358000", "113118.360000", "113118.362000", "113118.364000", "113118.366000", "113118.368000", "113118.370000", "113118.372000", "113118.374000", "113118.376000", "113118.378000", "113118.380000", "113118.382000", "113118.384000", "113158.344000", "113158.346000", "113158.348000", "113158.350000", "113158.353000", "113158.355000", "113158.357000", "113158.359000", "113158.361000", "113158.363000", "113158.365000", "113158.367000", "113158.369000", "113158.371000", "113158.378000", "113158.380000", "113158.382000", "113158.384000", "113158.386000", "113158.388000", "113158.954000"],
      "InstanceCreationTime": ["112038.349000", "112038.351000", "112038.353000", "112038.355000", "112038.357000", "112038.359000", "112038.361000", "112038.363000", "112038.366000", "112038.367000", "112038.369000", "112038.371000", "112038.374000", "112038.375000", "112038.377000", "112038.379000", "112038.382000", "112038.383000", "112038.385000", "112038.387000", "112038.390000", "112038.392000", "112038.401000", "112118.345000", "112118.348000", "112118.350000", "112118.352000", "112118.354000", "112118.356000", "112118.358000", "112118.360000", "112118.362000", "112118.364000", "112118.366000", "112118.368000", "112118.370000", "112118.372000", "112118.374000", "112118.376000", "112118.378000", "112118.380000", "112118.382000", "112118.384000", "112158.345000", "112158.347000", "112158.349000", "112158.351000", "112158.354000", "112158.356000", "112158.358000", "112158.360000", "112158.362000", "112158.364000", "112158.366000", "112158.367000", "112158.374000", "112158.376000", "112158.378000", "112158.380000", "112158.382000", "112158.384000", "112158.386000", "112158.388000", "112238.344000", "112238.346000", "112238.348000", "112238.350000", "112238.353000", "112238.355000", "112238.357000", "112238.358000", "112238.361000", "112238.363000", "112238.365000", "112238.366000", "112238.369000", "112238.371000", "112238.372000", "112238.374000", "112238.376000", "112238.378000", "112238.380000", "112238.382000", "112318.345000", "112318.347000", "112318.349000", "112318.351000", "112318.354000", "112318.356000", "112318.358000", "112318.360000", "112318.362000", "112318.364000", "112318.366000", "112318.368000", "112318.370000", "112318.372000", "112318.373000", "112318.375000", "112318.378000", "112318.379000", "112318.381000", "112318.383000", "112358.345000", "112358.347000", "112358.349000", "112358.351000", "112358.354000", "112358.356000", "112358.358000", "112358.360000", "112358.362000", "112358.364000", "112358.366000", "112358.367000", "112358.370000", "112358.380000", "112358.382000", "112358.384000", "112358.386000", "112358.388000", "112358.390000", "112358.392000", "112438.345000", "112438.347000", "112438.349000", "112438.351000", "112438.354000", "112438.356000", "112438.358000", "112438.360000", "112438.362000", "112438.364000", "112438.366000", "112438.368000", "112438.370000", "112438.372000", "112438.374000", "112438.375000", "112438.378000", "112438.380000", "112438.382000", "112438.383000", "112518.344000", "112518.346000", "112518.348000", "112518.350000", "112518.353000", "112518.367000", "112518.369000", "112518.371000", "112518.373000", "112518.375000", "112518.377000", "112518.379000", "112518.381000", "112518.383000", "112518.385000", "112518.387000", "112518.389000", "112518.391000", "112518.393000", "112518.395000", "112558.345000", "112558.347000", "112558.349000", "112558.351000", "112558.354000", "112558.356000", "112558.358000", "112558.360000", "112558.362000", "112558.364000", "112558.366000", "112558.368000", "112558.370000", "112558.372000", "112558.374000", "112558.376000", "112558.378000", "112558.380000", "112558.382000", "112558.384000", "112638.345000", "112638.347000", "112638.349000", "112638.351000", "112638.353000", "112638.355000", "112638.357000", "112638.359000", "112638.362000", "112638.364000", "112638.365000", "112638.367000", "112638.370000", "112638.372000", "112638.373000", "112638.375000", "112638.378000", "112638.380000", "112638.382000", "112638.383000", "112718.344000", "112718.347000", "112718.349000", "112718.351000", "112718.353000", "112718.355000", "112718.357000", "112718.359000", "112718.361000", "112718.363000", "112718.365000", "112718.367000", "112718.369000", "112718.371000", "112718.373000", "112718.375000", "112718.377000", "112718.379000", "112718.381000", "112718.383000", "112758.345000", "112758.347000", "112758.349000", "112758.351000", "112758.353000", "112758.355000", "112758.357000", "112758.359000", "112758.362000", "112758.364000", "112758.366000", "112758.367000", "112758.370000", "112758.372000", "112758.374000", "112758.375000", "112758.378000", "112758.380000", "112758.382000", "112758.383000", "112838.345000", "112838.347000", "112838.349000", "112838.351000", "112838.354000", "112838.356000", "112838.357000", "112838.359000", "112838.362000", "112838.364000", "112838.365000", "112838.367000", "112838.370000", "112838.372000", "112838.373000", "112838.375000", "112838.378000", "112838.379000", "112838.381000", "112838.383000", "112918.345000", "112918.347000", "112918.349000", "112918.351000", "112918.354000", "112918.356000", "112918.358000", "112918.360000", "112918.362000", "112918.364000", "112918.366000", "112918.368000", "112918.370000", "112918.372000", "112918.374000", "112918.376000", "112918.378000", "112918.380000", "112918.382000", "112918.384000", "112958.344000", "112958.346000", "112958.348000", "112958.350000", "112958.353000", "112958.355000", "112958.357000", "112958.359000", "112958.361000", "112958.363000", "112958.365000", "112958.367000", "112958.369000", "112958.371000", "112958.373000", "112958.375000", "112958.377000", "112958.379000", "112958.381000", "112958.383000", "113038.345000", "113038.347000", "113038.349000", "113038.351000", "113038.354000", "113038.356000", "113038.358000", "113038.360000", "113038.362000", "113038.364000", "113038.366000", "113038.368000", "113038.370000", "113038.372000", "113038.374000", "113038.376000", "113038.378000", "113038.380000", "113038.382000", "113038.384000", "113118.345000", "113118.347000", "113118.349000", "113118.351000", "113118.354000", "113118.356000", "113118.358000", "113118.360000", "113118.362000", "113118.364000", "113118.366000", "113118.368000", "113118.370000", "113118.372000", "113118.374000", "113118.376000", "113118.378000", "113118.380000", "113118.382000", "113118.384000", "113158.344000", "113158.346000", "113158.348000", "113158.350000", "113158.353000", "113158.355000", "113158.357000", "113158.359000", "113158.361000", "113158.363000", "113158.365000", "113158.367000", "113158.369000", "113158.371000", "113158.378000", "113158.380000", "113158.382000", "113158.384000", "113158.386000", "113158.388000", "113158.954000"],
      "InstanceNumber": [1, 2, 3, 4, 5, 6, 7, 8, 9, 10, 11, 12, 13, 14, 15, 16, 17, 18, 19, 20, 21, 22, 23, 24, 25, 26, 27, 28, 29, 30, 31, 32, 33, 34, 35, 36, 37, 38, 39, 40, 41, 42, 43, 44, 45, 46, 47, 48, 49, 50, 51, 52, 53, 54, 55, 56, 57, 58, 59, 60, 61, 62, 63, 64, 65, 66, 67, 68, 69, 70, 71, 72, 73, 74, 75, 76, 77, 78, 79, 80, 81, 82, 83, 84, 85, 86, 87, 88, 89, 90, 91, 92, 93, 94, 95, 96, 97, 98, 99, 100, 101, 102, 103, 104, 105, 106, 107, 108, 109, 110, 111, 112, 113, 114, 115, 116, 117, 118, 119, 120, 121, 122, 123, 124, 125, 126, 127, 128, 129, 130, 131, 132, 133, 134, 135, 136, 137, 138, 139, 140, 141, 142, 143, 144, 145, 146, 147, 148, 149, 150, 151, 152, 153, 154, 155, 156, 157, 158, 159, 160, 161, 162, 163, 164, 165, 166, 167, 168, 169, 170, 171, 172, 173, 174, 175, 176, 177, 178, 179, 180, 181, 182, 183, 184, 185, 186, 187, 188, 189, 190, 191, 192, 193, 194, 195, 196, 197, 198, 199, 200, 201, 202, 203, 204, 205, 206, 207, 208, 209, 210, 211, 212, 213, 214, 215, 216, 217, 218, 219, 220, 221, 222, 223, 224, 225, 226, 227, 228, 229, 230, 231, 232, 233, 234, 235, 236, 237, 238, 239, 240, 241, 242, 243, 244, 245, 246, 247, 248, 249, 250, 251, 252, 253, 254, 255, 256, 257, 258, 259, 260, 261, 262, 263, 264, 265, 266, 267, 268, 269, 270, 271, 272, 273, 274, 275, 276, 277, 278, 279, 280, 281, 282, 283, 284, 285, 286, 287, 288, 289, 290, 291, 292, 293, 294, 295, 296, 297, 298, 299, 300, 301, 302, 303, 304, 305, 306, 307, 308, 309, 310, 311, 312, 313, 314, 315, 316, 317, 318, 319, 320, 321, 322, 323, 324, 325, 326, 327, 328, 329, 330, 331, 332, 333, 334, 335, 336, 337, 338, 339, 340, 341, 342, 343, 344, 345, 346, 347, 348, 349, 350, 351, 352, 353, 354, 355, 356, 357, 358, 359, 360, 361, 362, 363, 364],
      "LargestImagePixelValue": [2383, 2424, 2362, 2365, 2394, 2368, 2341, 2323, 2348, 2346, 2356, 2330, 2313, 2327, 2311, 2337, 2360, 2355, 2323, 2334, 2338, 2329, 2320, 2323, 2349, 2351, 2312, 2354, 2372, 2359, 2318, 2363, 2371, 2329, 2339, 2315, 2312, 2299, 2288, 2277, 2293, 2296, 2301, 2327, 2286, 2322, 2309, 2308, 2310, 2295, 2291, 2321, 2328, 2325, 2343, 2330, 2328, 2311, 2334, 2326, 2331, 2346, 2347, 2320, 2323, 2318, 2290, 2309, 2326, 2318, 2319, 2319, 2316, 2283, 2286, 2312, 2332, 2306, 2305, 2291, 2316, 2310, 2320, 2322, 2300, 2312, 2300, 2304, 2324, 2306, 2326, 2358, 2332, 2326, 2309, 2304, 2273, 2280, 2332, 2318, 2309, 2322, 2322, 2322, 2321, 2302, 2314, 2327, 2323, 2313, 2309, 2340, 2331, 2324, 2331, 2315, 2316, 2310, 2328, 2321, 2328, 2347, 2295, 2333, 2320, 2320, 2302, 2326, 2334, 2324, 2340, 2316, 2316, 2313, 2314, 2308, 2308, 2323, 2323, 2318, 2322, 2312, 2316, 2330, 2312, 2335, 2328, 2320, 2350, 2331, 2327, 2305, 2326, 2361, 2336, 2346, 2327, 2299, 2319, 2321, 2330, 2324, 2326, 2333, 2345, 2331, 2319, 2338, 2331, 2322, 2327, 2331, 2339, 2329, 2321, 2330, 2319, 2333, 2341, 2327, 2326, 2319, 2340, 2320, 2303, 2336, 2317, 2303, 2322, 2327, 2323, 2329, 2317, 2320, 2320, 2314, 2311, 2319, 2335, 2319, 2330, 2324, 2339, 2344, 2332, 2315, 2316, 2325, 2339, 2315, 2328, 2305, 2343, 2340, 2294, 2344, 2325, 2310, 2335, 2321, 2309, 2312, 2323, 2317, 2325, 2325, 2333, 2329, 2322, 2298, 2314, 2322, 2310, 2311, 2327, 2342, 2316, 2321, 2336, 2327, 2324, 2345, 2311, 2313, 2355, 2320, 2304, 2296, 2288, 2295, 2294, 2292, 2288, 2296, 2302, 2318, 2298, 2309, 2314, 2302, 2304, 2317, 2276, 2296, 2284, 2309, 2302, 2311, 2295, 2299, 2310, 2300, 2317, 2268, 2271, 2276, 2221, 2320, 2277, 2281, 2271, 2231, 2285, 2283, 2268, 2297, 2284, 2288, 2285, 2277, 2311, 2320, 2302, 2300, 2280, 2292, 2289, 2297, 2290, 2295, 2317, 2284, 2299, 2308, 2301, 2318, 2280, 2288, 2300, 2287, 2283, 2273, 2277, 2295, 2289, 2285, 2276, 2291, 2289, 2263, 2302, 2276, 2272, 2287, 2274, 2287, 2264, 2273, 2299, 2298, 2304, 2306, 2309, 2284, 2234, 2247, 2263, 2328, 2295, 2266, 2275, 2257, 2262, 2272, 2280, 2288, 2293, 2290, 2278, 2283, 2309, 2315, 2295, 2291, 2275, 2291, 2275, 2289, 2313, 2293, 2316, 2316, 2287, 2341],
