{
  "AcquisitionMatrixPE": 64,
  "AcquisitionNumber": 1,
  "AcquisitionTime": "11:31:15.872500",
  "BandwidthPerPixelPhaseEncode": 25.202,
  "BaseResolution": 64,
  "BodyPartExamined": "BRAIN",
  "ConsistencyInfo": "N4_VE11C_LATEST_20160120",
  "ConversionSoftware": "dcm2niix",
  "ConversionSoftwareVersion": "v1.0.20201102",
  "DerivedVendorReportedEchoSpacing": 0.00061999,
  "DeviceSerialNumber": "45758",
  "DwellTime": 4.3e-06,
  "EchoTime": 0.03,
  "EchoTrainLength": 64,
  "EffectiveEchoSpacing": 0.00061999,
  "FlipAngle": 90,
  "ImageOrientationPatientDICOM": [0.998435, -0.0474352, 0.0296126, 0.0505785, 0.991909, -0.116438],
  "ImageType": [
    "ORIGINAL",
    "PRIMARY",
    "M",
    "ND",
    "MOSAIC"
],
  "ImagingFrequency": 123.2,
  "InPlanePhaseEncodingDirectionDICOM": "ROW",
  "InstitutionAddress": "Street StreetNo,City /652E4B/,District,KR,ZIP",
  "InstitutionName": "DGMIF",
  "InstitutionalDepartmentName": "Department",
  "MRAcquisitionType": "2D",
  "MagneticFieldStrength": 3,
  "Manufacturer": "Siemens",
  "ManufacturersModelName": "Skyra",
  "Modality": "MR",
  "PartialFourier": 1,
  "PatientPosition": "HFS",
  "PercentPhaseFOV": 100,
  "PercentSampling": 100,
  "PhaseEncodingDirection": "i",
  "PhaseEncodingSteps": 64,
  "PhaseResolution": 1,
  "PixelBandwidth": 1815,
  "ProcedureStepDescription": "DGMIF^DGIST",
  "ProtocolName": "EPI_DGIST_3",
  "PulseSequenceDetails": "%SiemensSeq%\\ep2d_bold",
  "ReceiveCoilActiveElements": "HC1-6",
  "ReceiveCoilName": "HeadNeck_64",
  "ReconMatrixPE": 64,
  "RepetitionTime": 2,
  "SAR": 0.107141,
  "ScanOptions": "FS",
  "ScanningSequence": "EP",
  "SequenceName": "*epfid2d1_64",
  "SequenceVariant": "SK",
  "SeriesDescription": "EPI_DGIST_3",
  "SeriesNumber": 4,
  "ShimSetting": [-9730, -13650, -8297, 442, -352, 121, -670, -84],
  "SliceThickness": 4,
  "SliceTiming": [0.99, 0, 1.055, 0.0675, 1.1225, 0.1325, 1.1875, 0.1975, 1.255, 0.265, 1.32, 0.33, 1.385, 0.3975, 1.4525, 0.4625, 1.5175, 0.5275, 1.585, 0.595, 1.65, 0.66, 1.715, 0.725, 1.7825, 0.7925, 1.8475, 0.8575, 1.915, 0.925],
  "SoftwareVersions": "syngo MR E11",
  "SpacingBetweenSlices": 4.8,
  "StationName": "AWP45758",
  "TaskName": "asrt",
  "TotalReadoutTime": 0.0390594,
  "TxRefAmp": 290.972,
  "dcmmeta_affine": [
    [-2.9953057765960693, 0.15173564851284027, 0.1144789457321167, 91.13427734375],
    [0.14230547845363617, 2.9757277965545654, -0.565216600894928, -125.33332824707031],
    [0.08883785456418991, 0.3493136763572693, 4.765230655670166, -69.3935775756836],
    [0.0, 0.0, 0.0, 1.0]
],
  "dcmmeta_reorient_transform": [
    [0.0, -1.0, 0.0, 63.0],
    [1.0, 0.0, 0.0, 0.0],
    [0.0, 0.0, 1.0, 0.0],
    [0.0, 0.0, 0.0, 1.0]
],
  "dcmmeta_shape": [64, 64, 30, 364],
  "dcmmeta_slice_dim": 2,
  "dcmmeta_version": 0.6,
  "global": {
    "const": {
      "AcquisitionMatrix": [0, 64, 64, 0],
      "AngioFlag": "N",
      "BitsAllocated": 16,
      "BitsStored": 12,
      "BodyPartExamined": "BRAIN",
      "Columns": 384,
      "EchoNumbers": 1,
      "EchoTime": 30.0,
      "EchoTrainLength": 64,
      "FlipAngle": 90.0,
      "HighBit": 11,
      "ImageOrientationPatient": [0.99843527496362, -0.0474351618898, 0.02961261766228, 0.05057854969633, 0.99190928430141, -0.1164378891396],
      "ImagePositionPatient": [-604.22026195485, -515.48510255047, -5.710685712816],
      "ImageType": [
        "ORIGINAL",
        "PRIMARY",
        "M",
        "ND",
        "MOSAIC"
],
      "ImagedNucleus": "1H",
      "ImagingFrequency": 123.200217,
      "InPlanePhaseEncodingDirection": "ROW",
      "MRAcquisitionType": "2D",
      "MagneticFieldStrength": 3.0,
      "Manufacturer": "SIEMENS",
      "ManufacturerModelName": "Skyra",
      "Modality": "MR",
      "NumberOfAverages": 1.0,
      "NumberOfPhaseEncodingSteps": 64,
      "PercentPhaseFieldOfView": 100.0,
      "PercentSampling": 100.0,
      "PerformedProcedureStepStartTime": "104451.534000",
      "PhotometricInterpretation": "MONOCHROME2",
      "PixelBandwidth": 1815.0,
      "PixelRepresentation": 0,
      "PixelSpacing": [3.0, 3.0],
      "ProtocolName": "EPI_DGIST_3",
      "RepetitionTime": 2000.0,
      "Rows": 384,
      "SAR": 0.10714112966939,
      "SamplesPerPixel": 1,
      "ScanOptions": "FS",
      "ScanningSequence": "EP",
      "SequenceName": "*epfid2d1_64",
      "SequenceVariant": "SK",
      "SeriesDescription": "EPI_DGIST_3",
      "SeriesNumber": 4,
      "SeriesTime": "113123.632000",
      "SliceLocation": -51.958953372274,
      "SliceThickness": 4.0,
      "SmallestImagePixelValue": 0,
      "SoftwareVersions": "syngo MR E11",
      "SpacingBetweenSlices": 4.7999999580044,
      "SpecificCharacterSet": "ISO_IR 100",
      "StudyID": "1",
      "StudyTime": "104451.388000",
      "TransmitCoilName": "Body",
      "VariableFlipAngleFlag": "N",
      "WindowCenterWidthExplanation": "Algo1",
      "dBdt": 0.0},
    "slices": {}
  },
  "time": {
    "samples": {
      "AcquisitionNumber": [1, 2, 3, 4, 5, 6, 7, 8, 9, 10, 11, 12, 13, 14, 15, 16, 17, 18, 19, 20, 21, 22, 23, 24, 25, 26, 27, 28, 29, 30, 31, 32, 33, 34, 35, 36, 37, 38, 39, 40, 41, 42, 43, 44, 45, 46, 47, 48, 49, 50, 51, 52, 53, 54, 55, 56, 57, 58, 59, 60, 61, 62, 63, 64, 65, 66, 67, 68, 69, 70, 71, 72, 73, 74, 75, 76, 77, 78, 79, 80, 81, 82, 83, 84, 85, 86, 87, 88, 89, 90, 91, 92, 93, 94, 95, 96, 97, 98, 99, 100, 101, 102, 103, 104, 105, 106, 107, 108, 109, 110, 111, 112, 113, 114, 115, 116, 117, 118, 119, 120, 121, 122, 123, 124, 125, 126, 127, 128, 129, 130, 131, 132, 133, 134, 135, 136, 137, 138, 139, 140, 141, 142, 143, 144, 145, 146, 147, 148, 149, 150, 151, 152, 153, 154, 155, 156, 157, 158, 159, 160, 161, 162, 163, 164, 165, 166, 167, 168, 169, 170, 171, 172, 173, 174, 175, 176, 177, 178, 179, 180, 181, 182, 183, 184, 185, 186, 187, 188, 189, 190, 191, 192, 193, 194, 195, 196, 197, 198, 199, 200, 201, 202, 203, 204, 205, 206, 207, 208, 209, 210, 211, 212, 213, 214, 215, 216, 217, 218, 219, 220, 221, 222, 223, 224, 225, 226, 227, 228, 229, 230, 231, 232, 233, 234, 235, 236, 237, 238, 239, 240, 241, 242, 243, 244, 245, 246, 247, 248, 249, 250, 251, 252, 253, 254, 255, 256, 257, 258, 259, 260, 261, 262, 263, 264, 265, 266, 267, 268, 269, 270, 271, 272, 273, 274, 275, 276, 277, 278, 279, 280, 281, 282, 283, 284, 285, 286, 287, 288, 289, 290, 291, 292, 293, 294, 295, 296, 297, 298, 299, 300, 301, 302, 303, 304, 305, 306, 307, 308, 309, 310, 311, 312, 313, 314, 315, 316, 317, 318, 319, 320, 321, 322, 323, 324, 325, 326, 327, 328, 329, 330, 331, 332, 333, 334, 335, 336, 337, 338, 339, 340, 341, 342, 343, 344, 345, 346, 347, 348, 349, 350, 351, 352, 353, 354, 355, 356, 357, 358, 359, 360, 361, 362, 363, 364],
      "AcquisitionTime": ["113115.872500", "113117.872500", "113119.872500", "113121.872500", "113123.872500", "113125.872500", "113127.872500", "113129.872500", "113131.872500", "113133.872500", "113135.872500", "113137.872500", "113139.872500", "113141.872500", "113143.872500", "113145.872500", "113147.872500", "113149.872500", "113151.872500", "113153.872500", "113155.872500", "113157.872500", "113159.872500", "113201.872500", "113203.872500", "113205.872500", "113207.872500", "113209.872500", "113211.872500", "113213.872500", "113215.872500", "113217.872500", "113219.872500", "113221.872500", "113223.872500", "113225.872500", "113227.872500", "113229.872500", "113231.872500", "113233.872500", "113235.872500", "113237.872500", "113239.872500", "113241.872500", "113243.872500", "113245.872500", "113247.872500", "113249.872500", "113251.872500", "113253.872500", "113255.872500", "113257.872500", "113259.872500", "113301.872500", "113303.872500", "113305.872500", "113307.872500", "113309.872500", "113311.872500", "113313.872500", "113315.872500", "113317.872500", "113319.872500", "113321.872500", "113323.872500", "113325.872500", "113327.872500", "113329.872500", "113331.872500", "113333.872500", "113335.872500", "113337.872500", "113339.872500", "113341.872500", "113343.872500", "113345.872500", "113347.872500", "113349.872500", "113351.872500", "113353.872500", "113355.872500", "113357.872500", "113359.872500", "113401.872500", "113403.872500", "113405.872500", "113407.872500", "113409.872500", "113411.872500", "113413.872500", "113415.872500", "113417.872500", "113419.872500", "113421.872500", "113423.872500", "113425.872500", "113427.872500", "113429.872500", "113431.872500", "113433.872500", "113435.872500", "113437.872500", "113439.872500", "113441.872500", "113443.872500", "113445.872500", "113447.872500", "113449.872500", "113451.872500", "113453.872500", "113455.872500", "113457.872500", "113459.872500", "113501.872500", "113503.872500", "113505.872500", "113507.872500", "113509.872500", "113511.872500", "113513.872500", "113515.872500", "113517.872500", "113519.872500", "113521.872500", "113523.872500", "113525.872500", "113527.872500", "113529.872500", "113531.872500", "113533.872500", "113535.872500", "113537.872500", "113539.872500", "113541.872500", "113543.872500", "113545.872500", "113547.872500", "113549.872500", "113551.872500", "113553.872500", "113555.872500", "113557.872500", "113559.872500", "113601.872500", "113603.872500", "113605.872500", "113607.872500", "113609.872500", "113611.872500", "113613.872500", "113615.872500", "113617.872500", "113619.872500", "113621.872500", "113623.872500", "113625.872500", "113627.872500", "113629.872500", "113631.872500", "113633.872500", "113635.872500", "113637.872500", "113639.872500", "113641.872500", "113643.872500", "113645.872500", "113647.872500", "113649.872500", "113651.872500", "113653.872500", "113655.872500", "113657.872500", "113659.872500", "113701.872500", "113703.872500", "113705.872500", "113707.872500", "113709.872500", "113711.872500", "113713.872500", "113715.872500", "113717.872500", "113719.872500", "113721.872500", "113723.872500", "113725.872500", "113727.872500", "113729.872500", "113731.872500", "113733.872500", "113735.872500", "113737.872500", "113739.872500", "113741.872500", "113743.872500", "113745.872500", "113747.872500", "113749.872500", "113751.872500", "113753.872500", "113755.872500", "113757.872500", "113759.872500", "113801.872500", "113803.872500", "113805.872500", "113807.872500", "113809.872500", "113811.872500", "113813.872500", "113815.872500", "113817.872500", "113819.872500", "113821.872500", "113823.872500", "113825.872500", "113827.872500", "113829.872500", "113831.872500", "113833.872500", "113835.872500", "113837.872500", "113839.872500", "113841.872500", "113843.872500", "113845.872500", "113847.872500", "113849.872500", "113851.872500", "113853.872500", "113855.872500", "113857.872500", "113859.872500", "113901.872500", "113903.872500", "113905.872500", "113907.872500", "113909.872500", "113911.872500", "113913.872500", "113915.872500", "113917.872500", "113919.872500", "113921.872500", "113923.872500", "113925.872500", "113927.872500", "113929.872500", "113931.872500", "113933.872500", "113935.872500", "113937.872500", "113939.872500", "113941.872500", "113943.872500", "113945.872500", "113947.872500", "113949.872500", "113951.872500", "113953.872500", "113955.872500", "113957.872500", "113959.872500", "114001.872500", "114003.872500", "114005.872500", "114007.872500", "114009.872500", "114011.872500", "114013.872500", "114015.872500", "114017.872500", "114019.872500", "114021.872500", "114023.872500", "114025.872500", "114027.872500", "114029.872500", "114031.872500", "114033.872500", "114035.872500", "114037.872500", "114039.872500", "114041.872500", "114043.872500", "114045.872500", "114047.872500", "114049.872500", "114051.872500", "114053.872500", "114055.872500", "114057.872500", "114059.872500", "114101.872500", "114103.872500", "114105.872500", "114107.872500", "114109.872500", "114111.872500", "114113.872500", "114115.872500", "114117.872500", "114119.872500", "114121.872500", "114123.872500", "114125.872500", "114127.872500", "114129.872500", "114131.872500", "114133.872500", "114135.872500", "114137.872500", "114139.872500", "114141.872500", "114143.872500", "114145.872500", "114147.872500", "114149.872500", "114151.872500", "114153.872500", "114155.872500", "114157.872500", "114159.872500", "114201.872500", "114203.872500", "114205.872500", "114207.872500", "114209.872500", "114211.872500", "114213.872500", "114215.872500", "114217.872500", "114219.872500", "114221.872500", "114223.872500", "114225.872500", "114227.872500", "114229.872500", "114231.872500", "114233.872500", "114235.872500", "114237.872500", "114239.872500", "114241.872500", "114243.872500", "114245.872500", "114247.872500", "114249.872500", "114251.872500", "114253.872500", "114255.872500", "114257.872500", "114259.872500", "114301.872500", "114303.872500", "114305.872500", "114307.872500", "114309.872500", "114311.872500", "114313.872500", "114315.872500", "114317.872500", "114319.872500", "114321.872500"],
      "ContentTime": ["113123.635000", "113123.638000", "113123.641000", "113123.643000", "113203.629000", "113203.632000", "113203.635000", "113203.637000", "113203.640000", "113203.642000", "113203.645000", "113203.647000", "113203.649000", "113203.652000", "113203.662000", "113203.664000", "113203.669000", "113203.672000", "113203.674000", "113203.677000", "113203.679000", "113203.682000", "113203.684000", "113203.687000", "113243.630000", "113243.633000", "113243.636000", "113243.638000", "113243.641000", "113243.643000", "113243.645000", "113243.648000", "113243.650000", "113243.653000", "113243.655000", "113243.658000", "113243.660000", "113243.662000", "113243.665000", "113243.670000", "113243.673000", "113243.675000", "113243.678000", "113243.680000", "113323.630000", "113323.638000", "113323.640000", "113323.642000", "113323.645000", "113323.647000", "113323.650000", "113323.652000", "113323.655000", "113323.657000", "113323.660000", "113323.662000", "113323.665000", "113323.667000", "113323.670000", "113323.672000", "113323.675000", "113323.677000", "113323.679000", "113323.688000", "113403.630000", "113403.633000", "113403.636000", "113403.638000", "113403.641000", "113403.643000", "113403.646000", "113403.648000", "113403.651000", "113403.653000", "113403.656000", "113403.658000", "113403.661000", "113403.663000", "113403.666000", "113403.668000", "113403.671000", "113403.673000", "113403.675000", "113403.678000", "113443.629000", "113443.632000", "113443.635000", "113443.637000", "113443.640000", "113443.642000", "113443.644000", "113443.647000", "113443.649000", "113443.652000", "113443.654000", "113443.657000", "113443.659000", "113443.662000", "113443.664000", "113443.667000", "113443.669000", "113443.672000", "113443.674000", "113443.677000", "113523.630000", "113523.633000", "113523.636000", "113523.638000", "113523.641000", "113523.643000", "113523.645000", "113523.648000", "113523.650000", "113523.653000", "113523.655000", "113523.658000", "113523.660000", "113523.662000", "113523.665000", "113523.667000", "113523.670000", "113523.672000", "113523.675000", "113523.677000", "113603.630000", "113603.633000", "113603.636000", "113603.638000", "113603.641000", "113603.643000", "113603.646000", "113603.648000", "113603.651000", "113603.653000", "113603.656000", "113603.658000", "113603.661000", "113603.663000", "113603.666000", "113603.668000", "113603.670000", "113603.673000", "113603.675000", "113603.678000", "113643.629000", "113643.632000", "113643.635000", "113643.637000", "113643.640000", "113643.642000", "113643.645000", "113643.647000", "113643.649000", "113643.652000", "113643.654000", "113643.657000", "113643.659000", "113643.662000", "113643.664000", "113643.667000", "113643.669000", "113643.672000", "113643.674000", "113643.676000", "113723.630000", "113723.633000", "113723.636000", "113723.638000", "113723.641000", "113723.643000", "113723.646000", "113723.649000", "113723.651000", "113723.654000", "113723.656000", "113723.659000", "113723.661000", "113723.663000", "113723.666000", "113723.668000", "113723.671000", "113723.673000", "113723.676000", "113723.678000", "113803.630000", "113803.633000", "113803.636000", "113803.638000", "113803.641000", "113803.643000", "113803.646000", "113803.648000", "113803.651000", "113803.653000", "113803.656000", "113803.658000", "113803.661000", "113803.663000", "113803.665000", "113803.668000", "113803.670000", "113803.673000", "113803.675000", "113803.678000", "113843.630000", "113843.633000", "113843.636000", "113843.638000", "113843.641000", "113843.643000", "113843.646000", "113843.648000", "113843.651000", "113843.653000", "113843.656000", "113843.658000", "113843.661000", "113843.663000", "113843.666000", "113843.668000", "113843.670000", "113843.673000", "113843.675000", "113843.678000", "113923.629000", "113923.632000", "113923.635000", "113923.637000", "113923.639000", "113923.642000", "113923.644000", "113923.647000", "113923.649000", "113923.652000", "113923.654000", "113923.657000", "113923.659000", "113923.662000", "113923.664000", "113923.667000", "113923.669000", "113923.672000", "113923.674000", "113923.677000", "114003.630000", "114003.633000", "114003.636000", "114003.638000", "114003.641000", "114003.643000", "114003.646000", "114003.648000", "114003.651000", "114003.653000", "114003.656000", "114003.658000", "114003.661000", "114003.663000", "114003.666000", "114003.668000", "114003.671000", "114003.673000", "114003.676000", "114003.678000", "114043.630000", "114043.633000", "114043.636000", "114043.638000", "114043.641000", "114043.643000", "114043.646000", "114043.648000", "114043.651000", "114043.653000", "114043.655000", "114043.658000", "114043.660000", "114043.663000", "114043.665000", "114043.668000", "114043.670000", "114043.673000", "114043.675000", "114043.678000", "114103.631000", "114103.633000", "114103.636000", "114103.638000", "114103.641000", "114103.643000", "114103.646000", "114103.648000", "114103.651000", "114103.653000", "114143.629000", "114143.632000", "114143.635000", "114143.637000", "114143.640000", "114143.642000", "114143.645000", "114143.647000", "114143.650000", "114143.652000", "114143.655000", "114143.657000", "114143.659000", "114143.662000", "114143.664000", "114143.667000", "114143.669000", "114143.672000", "114143.674000", "114143.677000", "114223.631000", "114223.633000", "114223.636000", "114223.638000", "114223.641000", "114223.643000", "114223.646000", "114223.648000", "114223.651000", "114223.653000", "114223.656000", "114223.658000", "114223.661000", "114223.663000", "114223.666000", "114223.668000", "114223.671000", "114223.673000", "114223.676000", "114223.678000", "114303.630000", "114303.633000", "114303.636000", "114303.638000", "114303.641000", "114303.643000", "114303.646000", "114303.648000", "114303.651000", "114303.653000", "114303.656000", "114303.658000", "114303.661000", "114303.663000", "114303.666000", "114303.668000", "114303.671000", "114303.673000", "114303.675000", "114303.678000", "114323.261000", "114323.264000", "114323.266000", "114323.277000", "114323.279000", "114323.282000", "114323.284000", "114323.299000", "114323.302000", "114323.305000"],
      "InstanceCreationTime": ["113123.635000", "113123.638000", "113123.641000", "113123.643000", "113203.629000", "113203.632000", "113203.635000", "113203.637000", "113203.640000", "113203.642000", "113203.645000", "113203.647000", "113203.649000", "113203.652000", "113203.662000", "113203.664000", "113203.669000", "113203.672000", "113203.674000", "113203.677000", "113203.679000", "113203.682000", "113203.684000", "113203.687000", "113243.630000", "113243.633000", "113243.636000", "113243.638000", "113243.641000", "113243.643000", "113243.645000", "113243.648000", "113243.650000", "113243.653000", "113243.655000", "113243.658000", "113243.660000", "113243.662000", "113243.665000", "113243.670000", "113243.673000", "113243.675000", "113243.678000", "113243.680000", "113323.630000", "113323.638000", "113323.640000", "113323.642000", "113323.645000", "113323.647000", "113323.650000", "113323.652000", "113323.655000", "113323.657000", "113323.660000", "113323.662000", "113323.665000", "113323.667000", "113323.670000", "113323.672000", "113323.675000", "113323.677000", "113323.679000", "113323.688000", "113403.630000", "113403.633000", "113403.636000", "113403.638000", "113403.641000", "113403.643000", "113403.646000", "113403.648000", "113403.651000", "113403.653000", "113403.656000", "113403.658000", "113403.661000", "113403.663000", "113403.666000", "113403.668000", "113403.671000", "113403.673000", "113403.675000", "113403.678000", "113443.629000", "113443.632000", "113443.635000", "113443.637000", "113443.640000", "113443.642000", "113443.644000", "113443.647000", "113443.649000", "113443.652000", "113443.654000", "113443.657000", "113443.659000", "113443.662000", "113443.664000", "113443.667000", "113443.669000", "113443.672000", "113443.674000", "113443.677000", "113523.630000", "113523.633000", "113523.636000", "113523.638000", "113523.641000", "113523.643000", "113523.645000", "113523.648000", "113523.650000", "113523.653000", "113523.655000", "113523.658000", "113523.660000", "113523.662000", "113523.665000", "113523.667000", "113523.670000", "113523.672000", "113523.675000", "113523.677000", "113603.630000", "113603.633000", "113603.636000", "113603.638000", "113603.641000", "113603.643000", "113603.646000", "113603.648000", "113603.651000", "113603.653000", "113603.656000", "113603.658000", "113603.661000", "113603.663000", "113603.666000", "113603.668000", "113603.670000", "113603.673000", "113603.675000", "113603.678000", "113643.629000", "113643.632000", "113643.635000", "113643.637000", "113643.640000", "113643.642000", "113643.645000", "113643.647000", "113643.649000", "113643.652000", "113643.654000", "113643.657000", "113643.659000", "113643.662000", "113643.664000", "113643.667000", "113643.669000", "113643.672000", "113643.674000", "113643.676000", "113723.630000", "113723.633000", "113723.636000", "113723.638000", "113723.641000", "113723.643000", "113723.646000", "113723.649000", "113723.651000", "113723.654000", "113723.656000", "113723.659000", "113723.661000", "113723.663000", "113723.666000", "113723.668000", "113723.671000", "113723.673000", "113723.676000", "113723.678000", "113803.630000", "113803.633000", "113803.636000", "113803.638000", "113803.641000", "113803.643000", "113803.646000", "113803.648000", "113803.651000", "113803.653000", "113803.656000", "113803.658000", "113803.661000", "113803.663000", "113803.665000", "113803.668000", "113803.670000", "113803.673000", "113803.675000", "113803.678000", "113843.630000", "113843.633000", "113843.636000", "113843.638000", "113843.641000", "113843.643000", "113843.646000", "113843.648000", "113843.651000", "113843.653000", "113843.656000", "113843.658000", "113843.661000", "113843.663000", "113843.666000", "113843.668000", "113843.670000", "113843.673000", "113843.675000", "113843.678000", "113923.629000", "113923.632000", "113923.635000", "113923.637000", "113923.639000", "113923.642000", "113923.644000", "113923.647000", "113923.649000", "113923.652000", "113923.654000", "113923.657000", "113923.659000", "113923.662000", "113923.664000", "113923.667000", "113923.669000", "113923.672000", "113923.674000", "113923.677000", "114003.630000", "114003.633000", "114003.636000", "114003.638000", "114003.641000", "114003.643000", "114003.646000", "114003.648000", "114003.651000", "114003.653000", "114003.656000", "114003.658000", "114003.661000", "114003.663000", "114003.666000", "114003.668000", "114003.671000", "114003.673000", "114003.676000", "114003.678000", "114043.630000", "114043.633000", "114043.636000", "114043.638000", "114043.641000", "114043.643000", "114043.646000", "114043.648000", "114043.651000", "114043.653000", "114043.655000", "114043.658000", "114043.660000", "114043.663000", "114043.665000", "114043.668000", "114043.670000", "114043.673000", "114043.675000", "114043.678000", "114103.631000", "114103.633000", "114103.636000", "114103.638000", "114103.641000", "114103.643000", "114103.646000", "114103.648000", "114103.651000", "114103.653000", "114143.629000", "114143.632000", "114143.635000", "114143.637000", "114143.640000", "114143.642000", "114143.645000", "114143.647000", "114143.650000", "114143.652000", "114143.655000", "114143.657000", "114143.659000", "114143.662000", "114143.664000", "114143.667000", "114143.669000", "114143.672000", "114143.674000", "114143.677000", "114223.631000", "114223.633000", "114223.636000", "114223.638000", "114223.641000", "114223.643000", "114223.646000", "114223.648000", "114223.651000", "114223.653000", "114223.656000", "114223.658000", "114223.661000", "114223.663000", "114223.666000", "114223.668000", "114223.671000", "114223.673000", "114223.676000", "114223.678000", "114303.630000", "114303.633000", "114303.636000", "114303.638000", "114303.641000", "114303.643000", "114303.646000", "114303.648000", "114303.651000", "114303.653000", "114303.656000", "114303.658000", "114303.661000", "114303.663000", "114303.666000", "114303.668000", "114303.671000", "114303.673000", "114303.675000", "114303.678000", "114323.261000", "114323.264000", "114323.266000", "114323.277000", "114323.279000", "114323.282000", "114323.284000", "114323.299000", "114323.302000", "114323.305000"],
      "InstanceNumber": [1, 2, 3, 4, 5, 6, 7, 8, 9, 10, 11, 12, 13, 14, 15, 16, 17, 18, 19, 20, 21, 22, 23, 24, 25, 26, 27, 28, 29, 30, 31, 32, 33, 34, 35, 36, 37, 38, 39, 40, 41, 42, 43, 44, 45, 46, 47, 48, 49, 50, 51, 52, 53, 54, 55, 56, 57, 58, 59, 60, 61, 62, 63, 64, 65, 66, 67, 68, 69, 70, 71, 72, 73, 74, 75, 76, 77, 78, 79, 80, 81, 82, 83, 84, 85, 86, 87, 88, 89, 90, 91, 92, 93, 94, 95, 96, 97, 98, 99, 100, 101, 102, 103, 104, 105, 106, 107, 108, 109, 110, 111, 112, 113, 114, 115, 116, 117, 118, 119, 120, 121, 122, 123, 124, 125, 126, 127, 128, 129, 130, 131, 132, 133, 134, 135, 136, 137, 138, 139, 140, 141, 142, 143, 144, 145, 146, 147, 148, 149, 150, 151, 152, 153, 154, 155, 156, 157, 158, 159, 160, 161, 162, 163, 164, 165, 166, 167, 168, 169, 170, 171, 172, 173, 174, 175, 176, 177, 178, 179, 180, 181, 182, 183, 184, 185, 186, 187, 188, 189, 190, 191, 192, 193, 194, 195, 196, 197, 198, 199, 200, 201, 202, 203, 204, 205, 206, 207, 208, 209, 210, 211, 212, 213, 214, 215, 216, 217, 218, 219, 220, 221, 222, 223, 224, 225, 226, 227, 228, 229, 230, 231, 232, 233, 234, 235, 236, 237, 238, 239, 240, 241, 242, 243, 244, 245, 246, 247, 248, 249, 250, 251, 252, 253, 254, 255, 256, 257, 258, 259, 260, 261, 262, 263, 264, 265, 266, 267, 268, 269, 270, 271, 272, 273, 274, 275, 276, 277, 278, 279, 280, 281, 282, 283, 284, 285, 286, 287, 288, 289, 290, 291, 292, 293, 294, 295, 296, 297, 298, 299, 300, 301, 302, 303, 304, 305, 306, 307, 308, 309, 310, 311, 312, 313, 314, 315, 316, 317, 318, 319, 320, 321, 322, 323, 324, 325, 326, 327, 328, 329, 330, 331, 332, 333, 334, 335, 336, 337, 338, 339, 340, 341, 342, 343, 344, 345, 346, 347, 348, 349, 350, 351, 352, 353, 354, 355, 356, 357, 358, 359, 360, 361, 362, 363, 364],
      "LargestImagePixelValue": [3374, 3293, 3242, 3259, 3231, 3234, 3217, 3192, 3194, 3210, 3201, 3212, 3213, 3206, 3199, 3212, 3217, 3202, 3205, 3206, 3200, 3212, 3216, 3227, 3206, 3208, 3215, 3209, 3218, 3219, 3227, 3215, 3221, 3216, 3197, 3208, 3197, 3192, 3205, 3199, 3194, 3181, 3181, 3182, 3176, 3181, 3179, 3186, 3187, 3164, 3165, 3153, 3167, 3186, 3196, 3181, 3173, 3168, 3178, 3168, 3183, 3282, 3221, 3224, 3238, 3229, 3224, 3205, 3212, 3223, 3211, 3194, 3193, 3190, 3199, 3193, 3186, 3183, 3181, 3185, 3191, 3178, 3180, 3165, 3161, 3155, 3156, 3165, 3163, 3164, 3179, 3184, 3182, 3177, 3166, 3163, 3159, 3165, 3163, 3166, 3154, 3163, 3166, 3162, 3166, 3156, 3157, 3167, 3170, 3164, 3169, 3164, 3171, 3164, 3161, 3150, 3160, 3165, 3157, 3170, 3183, 3223, 3219, 3216, 3163, 3169, 3167, 3155, 3154, 3166, 3147, 3150, 3155, 3152, 3158, 3149, 3147, 3166, 3152, 3170, 3160, 3165, 3177, 3170, 3177, 3164, 3158, 3167, 3166, 3177, 3209, 3218, 3255, 3249, 3242, 3224, 3215, 3206, 3204, 3202, 3191, 3174, 3173, 3164, 3173, 3159, 3159, 3165, 3170, 3174, 3168, 3177, 3173, 3173, 3186, 3177, 3184, 3186, 3186, 3194, 3192, 3232, 3201, 3199, 3170, 3181, 3178, 3162, 3159, 3174, 3171, 3180, 3165, 3165, 3174, 3175, 3180, 3184, 3180, 3187, 3182, 3186, 3181, 3188, 3194, 3192, 3193, 3201, 3193, 3195, 3178, 3158, 3164, 3168, 3144, 3149, 3157, 3175, 3178, 3178, 3178, 3173, 3188, 3184, 3187, 3180, 3179, 3185, 3187, 3194, 3191, 3192, 3190, 3182, 3186, 3192, 3192, 3206, 3199, 3194, 3192, 3178, 3155, 3170, 3181, 3177, 3169, 3184, 3179, 3185, 3182, 3195, 3197, 3193, 3196, 3187, 3204, 3207, 3199, 3204, 3192, 3205, 3198, 3197, 3204, 3199, 3207, 3207, 3204, 3202, 3179, 3168, 3163, 3160, 3167, 3162, 3176, 3178, 3188, 3186, 3190, 3195, 3189, 3189, 3195, 3195, 3199, 3197, 3198, 3202, 3200, 3206, 3207, 3206, 3206, 3193, 3204, 3199, 3205, 3210, 3193, 3200, 3208, 3209, 3199, 3189, 3181, 3177, 3173, 3186, 3177, 3179, 3182, 3184, 3186, 3173, 3190, 3189, 3187, 3180, 3177, 3191, 3189, 3188, 3184, 3178, 3191, 3196, 3194, 3188, 3169, 3217, 3223, 3231, 3205, 3165, 3157, 3207, 3206, 3175, 3183, 3167, 3181, 3188, 3182, 3181, 3200, 3164, 3155, 3172, 3174, 3175, 3181, 3179, 3178, 3179, 3192, 3190, 3187, 3180, 3209, 3229, 3215, 3200],
