{
  "AcquisitionMatrixPE": 64,
  "AcquisitionNumber": 1,
  "AcquisitionTime": "11:17:45.410000",
  "BandwidthPerPixelPhaseEncode": 25.202,
  "BaseResolution": 64,
  "BodyPartExamined": "BRAIN",
  "ConsistencyInfo": "N4_VE11C_LATEST_20160120",
  "ConversionSoftware": "dcm2niix",
  "ConversionSoftwareVersion": "v1.0.20201102",
  "DerivedVendorReportedEchoSpacing": 0.00061999,
  "DeviceSerialNumber": "45758",
  "DwellTime": 4.3e-06,
  "EchoTime": 0.03,
  "EchoTrainLength": 64,
  "EffectiveEchoSpacing": 0.00061999,
  "FlipAngle": 90,
  "ImageOrientationPatientDICOM": [0.998435, -0.0474352, 0.0296126, 0.0505785, 0.991909, -0.116438],
  "ImageType": [
    "ORIGINAL",
    "PRIMARY",
    "M",
    "ND",
    "MOSAIC"
],
  "ImagingFrequency": 123.2,
  "InPlanePhaseEncodingDirectionDICOM": "ROW",
  "InstitutionAddress": "Street StreetNo,City /652E4B/,District,KR,ZIP",
  "InstitutionName": "DGMIF",
  "InstitutionalDepartmentName": "Department",
  "MRAcquisitionType": "2D",
  "MagneticFieldStrength": 3,
  "Manufacturer": "Siemens",
  "ManufacturersModelName": "Skyra",
  "Modality": "MR",
  "PartialFourier": 1,
  "PatientPosition": "HFS",
  "PercentPhaseFOV": 100,
  "PercentSampling": 100,
  "PhaseEncodingDirection": "i",
  "PhaseEncodingSteps": 64,
  "PhaseResolution": 1,
  "PixelBandwidth": 1815,
  "ProcedureStepDescription": "DGMIF^DGIST",
  "ProtocolName": "EPI_DGIST_2",
  "PulseSequenceDetails": "%SiemensSeq%\\ep2d_bold",
  "ReceiveCoilActiveElements": "HC1-6",
  "ReceiveCoilName": "HeadNeck_64",
  "ReconMatrixPE": 64,
  "RepetitionTime": 2,
  "SAR": 0.107141,
  "ScanOptions": "FS",
  "ScanningSequence": "EP",
  "SequenceName": "*epfid2d1_64",
  "SequenceVariant": "SK",
  "SeriesDescription": "EPI_DGIST_2",
  "SeriesNumber": 3,
  "ShimSetting": [-9730, -13650, -8297, 442, -352, 121, -670, -84],
  "SliceThickness": 4,
  "SliceTiming": [0.99, 0, 1.055, 0.065, 1.12, 0.13, 1.1875, 0.1975, 1.2525, 0.2625, 1.32, 0.33, 1.385, 0.395, 1.45, 0.46, 1.5175, 0.5275, 1.5825, 0.5925, 1.6475, 0.66, 1.715, 0.725, 1.78, 0.79, 1.8475, 0.8575, 1.9125, 0.9225],
  "SoftwareVersions": "syngo MR E11",
  "SpacingBetweenSlices": 4.8,
  "StationName": "AWP45758",
  "TaskName": "asrt",
  "TotalReadoutTime": 0.0390594,
  "TxRefAmp": 290.972,
  "dcmmeta_affine": [
    [-2.9953057765960693, 0.15173564851284027, 0.1144789457321167, 91.13427734375],
    [0.14230547845363617, 2.9757277965545654, -0.565216600894928, -125.33332824707031],
    [0.08883785456418991, 0.3493136763572693, 4.765230655670166, -69.3935775756836],
    [0.0, 0.0, 0.0, 1.0]
],
  "dcmmeta_reorient_transform": [
    [0.0, -1.0, 0.0, 63.0],
    [1.0, 0.0, 0.0, 0.0],
    [0.0, 0.0, 1.0, 0.0],
    [0.0, 0.0, 0.0, 1.0]
],
  "dcmmeta_shape": [64, 64, 30, 364],
  "dcmmeta_slice_dim": 2,
  "dcmmeta_version": 0.6,
  "global": {
    "const": {
      "AcquisitionMatrix": [0, 64, 64, 0],
      "AngioFlag": "N",
      "BitsAllocated": 16,
      "BitsStored": 12,
      "BodyPartExamined": "BRAIN",
      "Columns": 384,
      "EchoNumbers": 1,
      "EchoTime": 30.0,
      "EchoTrainLength": 64,
      "FlipAngle": 90.0,
      "HighBit": 11,
      "ImageOrientationPatient": [0.99843527496362, -0.0474351618898, 0.02961261766228, 0.05057854969633, 0.99190928430141, -0.1164378891396],
      "ImagePositionPatient": [-604.22026195485, -515.48510255047, -5.710685712816],
      "ImageType": [
        "ORIGINAL",
        "PRIMARY",
        "M",
        "ND",
        "MOSAIC"
],
      "ImagedNucleus": "1H",
      "ImagingFrequency": 123.200191,
      "InPlanePhaseEncodingDirection": "ROW",
      "MRAcquisitionType": "2D",
      "MagneticFieldStrength": 3.0,
      "Manufacturer": "SIEMENS",
      "ManufacturerModelName": "Skyra",
      "Modality": "MR",
      "NumberOfAverages": 1.0,
      "NumberOfPhaseEncodingSteps": 64,
      "PercentPhaseFieldOfView": 100.0,
      "PercentSampling": 100.0,
      "PerformedProcedureStepStartTime": "104451.534000",
      "PhotometricInterpretation": "MONOCHROME2",
      "PixelBandwidth": 1815.0,
      "PixelRepresentation": 0,
      "PixelSpacing": [3.0, 3.0],
      "ProtocolName": "EPI_DGIST_2",
      "RepetitionTime": 2000.0,
      "Rows": 384,
      "SAR": 0.10714112966939,
      "SamplesPerPixel": 1,
      "ScanOptions": "FS",
      "ScanningSequence": "EP",
      "SequenceName": "*epfid2d1_64",
      "SequenceVariant": "SK",
      "SeriesDescription": "EPI_DGIST_2",
      "SeriesNumber": 3,
      "SeriesTime": "111828.997000",
      "SliceLocation": -51.958953372274,
      "SliceThickness": 4.0,
      "SmallestImagePixelValue": 0,
      "SoftwareVersions": "syngo MR E11",
      "SpacingBetweenSlices": 4.7999999580044,
      "SpecificCharacterSet": "ISO_IR 100",
      "StudyID": "1",
      "StudyTime": "104451.388000",
      "TransmitCoilName": "Body",
      "VariableFlipAngleFlag": "N",
      "WindowCenterWidthExplanation": "Algo1",
      "dBdt": 0.0},
    "slices": {}
  },
  "time": {
    "samples": {
      "AcquisitionNumber": [1, 2, 3, 4, 5, 6, 7, 8, 9, 10, 11, 12, 13, 14, 15, 16, 17, 18, 19, 20, 21, 22, 23, 24, 25, 26, 27, 28, 29, 30, 31, 32, 33, 34, 35, 36, 37, 38, 39, 40, 41, 42, 43, 44, 45, 46, 47, 48, 49, 50, 51, 52, 53, 54, 55, 56, 57, 58, 59, 60, 61, 62, 63, 64, 65, 66, 67, 68, 69, 70, 71, 72, 73, 74, 75, 76, 77, 78, 79, 80, 81, 82, 83, 84, 85, 86, 87, 88, 89, 90, 91, 92, 93, 94, 95, 96, 97, 98, 99, 100, 101, 102, 103, 104, 105, 106, 107, 108, 109, 110, 111, 112, 113, 114, 115, 116, 117, 118, 119, 120, 121, 122, 123, 124, 125, 126, 127, 128, 129, 130, 131, 132, 133, 134, 135, 136, 137, 138, 139, 140, 141, 142, 143, 144, 145, 146, 147, 148, 149, 150, 151, 152, 153, 154, 155, 156, 157, 158, 159, 160, 161, 162, 163, 164, 165, 166, 167, 168, 169, 170, 171, 172, 173, 174, 175, 176, 177, 178, 179, 180, 181, 182, 183, 184, 185, 186, 187, 188, 189, 190, 191, 192, 193, 194, 195, 196, 197, 198, 199, 200, 201, 202, 203, 204, 205, 206, 207, 208, 209, 210, 211, 212, 213, 214, 215, 216, 217, 218, 219, 220, 221, 222, 223, 224, 225, 226, 227, 228, 229, 230, 231, 232, 233, 234, 235, 236, 237, 238, 239, 240, 241, 242, 243, 244, 245, 246, 247, 248, 249, 250, 251, 252, 253, 254, 255, 256, 257, 258, 259, 260, 261, 262, 263, 264, 265, 266, 267, 268, 269, 270, 271, 272, 273, 274, 275, 276, 277, 278, 279, 280, 281, 282, 283, 284, 285, 286, 287, 288, 289, 290, 291, 292, 293, 294, 295, 296, 297, 298, 299, 300, 301, 302, 303, 304, 305, 306, 307, 308, 309, 310, 311, 312, 313, 314, 315, 316, 317, 318, 319, 320, 321, 322, 323, 324, 325, 326, 327, 328, 329, 330, 331, 332, 333, 334, 335, 336, 337, 338, 339, 340, 341, 342, 343, 344, 345, 346, 347, 348, 349, 350, 351, 352, 353, 354, 355, 356, 357, 358, 359, 360, 361, 362, 363, 364],
      "AcquisitionTime": ["111745.410000", "111747.410000", "111749.410000", "111751.410000", "111753.410000", "111755.410000", "111757.410000", "111759.410000", "111801.410000", "111803.410000", "111805.410000", "111807.410000", "111809.410000", "111811.410000", "111813.410000", "111815.410000", "111817.410000", "111819.410000", "111821.410000", "111823.410000", "111825.410000", "111827.410000", "111829.410000", "111831.410000", "111833.410000", "111835.410000", "111837.410000", "111839.410000", "111841.410000", "111843.410000", "111845.410000", "111847.410000", "111849.410000", "111851.410000", "111853.410000", "111855.410000", "111857.410000", "111859.410000", "111901.410000", "111903.410000", "111905.410000", "111907.410000", "111909.410000", "111911.410000", "111913.410000", "111915.410000", "111917.410000", "111919.410000", "111921.410000", "111923.410000", "111925.410000", "111927.410000", "111929.410000", "111931.410000", "111933.410000", "111935.410000", "111937.410000", "111939.410000", "111941.410000", "111943.410000", "111945.410000", "111947.410000", "111949.410000", "111951.410000", "111953.410000", "111955.410000", "111957.410000", "111959.410000", "112001.410000", "112003.410000", "112005.410000", "112007.410000", "112009.410000", "112011.410000", "112013.410000", "112015.410000", "112017.410000", "112019.410000", "112021.410000", "112023.410000", "112025.410000", "112027.410000", "112029.410000", "112031.410000", "112033.410000", "112035.410000", "112037.410000", "112039.410000", "112041.410000", "112043.410000", "112045.410000", "112047.410000", "112049.410000", "112051.410000", "112053.410000", "112055.410000", "112057.410000", "112059.410000", "112101.410000", "112103.410000", "112105.410000", "112107.410000", "112109.410000", "112111.410000", "112113.410000", "112115.410000", "112117.410000", "112119.410000", "112121.410000", "112123.410000", "112125.410000", "112127.410000", "112129.410000", "112131.410000", "112133.410000", "112135.410000", "112137.410000", "112139.410000", "112141.410000", "112143.410000", "112145.410000", "112147.410000", "112149.410000", "112151.410000", "112153.410000", "112155.410000", "112157.410000", "112159.410000", "112201.410000", "112203.410000", "112205.410000", "112207.410000", "112209.410000", "112211.410000", "112213.410000", "112215.410000", "112217.410000", "112219.410000", "112221.410000", "112223.410000", "112225.410000", "112227.410000", "112229.410000", "112231.410000", "112233.410000", "112235.410000", "112237.410000", "112239.410000", "112241.410000", "112243.410000", "112245.410000", "112247.410000", "112249.410000", "112251.410000", "112253.410000", "112255.410000", "112257.410000", "112259.410000", "112301.410000", "112303.410000", "112305.410000", "112307.410000", "112309.410000", "112311.410000", "112313.410000", "112315.410000", "112317.410000", "112319.410000", "112321.410000", "112323.410000", "112325.410000", "112327.410000", "112329.410000", "112331.410000", "112333.410000", "112335.410000", "112337.410000", "112339.410000", "112341.410000", "112343.410000", "112345.410000", "112347.410000", "112349.410000", "112351.410000", "112353.410000", "112355.410000", "112357.410000", "112359.410000", "112401.410000", "112403.410000", "112405.410000", "112407.410000", "112409.410000", "112411.410000", "112413.410000", "112415.410000", "112417.410000", "112419.410000", "112421.410000", "112423.410000", "112425.410000", "112427.410000", "112429.410000", "112431.410000", "112433.410000", "112435.410000", "112437.410000", "112439.410000", "112441.410000", "112443.410000", "112445.410000", "112447.410000", "112449.410000", "112451.410000", "112453.410000", "112455.410000", "112457.410000", "112459.410000", "112501.410000", "112503.410000", "112505.410000", "112507.410000", "112509.410000", "112511.410000", "112513.410000", "112515.410000", "112517.410000", "112519.410000", "112521.410000", "112523.410000", "112525.410000", "112527.410000", "112529.410000", "112531.410000", "112533.410000", "112535.410000", "112537.410000", "112539.410000", "112541.410000", "112543.410000", "112545.410000", "112547.410000", "112549.410000", "112551.410000", "112553.410000", "112555.410000", "112557.410000", "112559.410000", "112601.410000", "112603.410000", "112605.410000", "112607.410000", "112609.410000", "112611.410000", "112613.410000", "112615.410000", "112617.410000", "112619.410000", "112621.410000", "112623.410000", "112625.410000", "112627.410000", "112629.410000", "112631.410000", "112633.410000", "112635.410000", "112637.410000", "112639.410000", "112641.410000", "112643.410000", "112645.410000", "112647.410000", "112649.410000", "112651.410000", "112653.410000", "112655.410000", "112657.410000", "112659.410000", "112701.410000", "112703.410000", "112705.410000", "112707.410000", "112709.410000", "112711.410000", "112713.410000", "112715.410000", "112717.410000", "112719.410000", "112721.410000", "112723.410000", "112725.410000", "112727.410000", "112729.410000", "112731.410000", "112733.410000", "112735.410000", "112737.410000", "112739.410000", "112741.410000", "112743.410000", "112745.410000", "112747.410000", "112749.410000", "112751.410000", "112753.410000", "112755.410000", "112757.410000", "112759.410000", "112801.410000", "112803.410000", "112805.410000", "112807.410000", "112809.410000", "112811.410000", "112813.410000", "112815.410000", "112817.410000", "112819.410000", "112821.410000", "112823.410000", "112825.410000", "112827.410000", "112829.410000", "112831.410000", "112833.410000", "112835.410000", "112837.410000", "112839.410000", "112841.410000", "112843.410000", "112845.410000", "112847.410000", "112849.410000", "112851.410000", "112853.410000", "112855.410000", "112857.410000", "112859.410000", "112901.410000", "112903.410000", "112905.410000", "112907.410000", "112909.410000", "112911.410000", "112913.410000", "112915.410000", "112917.410000", "112919.410000", "112921.410000", "112923.410000", "112925.410000", "112927.410000", "112929.410000", "112931.410000", "112933.410000", "112935.410000", "112937.410000", "112939.410000", "112941.410000", "112943.410000", "112945.410000", "112947.410000", "112949.410000", "112951.410000"],
      "ContentTime": ["111829.002000", "111829.005000", "111829.008000", "111829.010000", "111829.017000", "111829.019000", "111829.023000", "111829.029000", "111829.032000", "111829.035000", "111829.037000", "111829.040000", "111829.042000", "111829.048000", "111829.051000", "111829.053000", "111829.056000", "111829.058000", "111829.061000", "111829.063000", "111829.065000", "111829.068000", "111908.995000", "111908.998000", "111909.000000", "111909.003000", "111909.005000", "111909.008000", "111909.010000", "111909.013000", "111909.015000", "111909.018000", "111909.020000", "111909.023000", "111909.025000", "111909.028000", "111909.030000", "111909.032000", "111909.035000", "111909.037000", "111909.040000", "111909.042000", "111948.995000", "111948.998000", "111949.002000", "111949.004000", "111949.006000", "111949.009000", "111949.015000", "111949.017000", "111949.020000", "111949.022000", "111949.025000", "111949.027000", "111949.029000", "111949.032000", "111949.034000", "111949.037000", "111949.039000", "111949.042000", "111949.044000", "111949.047000", "112028.995000", "112028.998000", "112029.001000", "112029.003000", "112029.006000", "112029.008000", "112029.010000", "112029.013000", "112029.015000", "112029.018000", "112029.020000", "112029.023000", "112029.025000", "112029.028000", "112029.030000", "112029.033000", "112029.035000", "112029.037000", "112029.040000", "112029.042000", "112108.995000", "112108.998000", "112109.002000", "112109.004000", "112109.007000", "112109.009000", "112109.012000", "112109.014000", "112109.016000", "112109.019000", "112109.021000", "112109.024000", "112109.026000", "112109.029000", "112109.031000", "112109.034000", "112109.036000", "112109.039000", "112109.041000", "112109.044000", "112148.995000", "112148.998000", "112149.001000", "112149.004000", "112149.006000", "112149.009000", "112149.011000", "112149.014000", "112149.016000", "112149.019000", "112149.021000", "112149.024000", "112149.026000", "112149.029000", "112149.031000", "112149.033000", "112149.036000", "112149.038000", "112149.041000", "112149.047000", "112228.995000", "112228.998000", "112229.001000", "112229.004000", "112229.006000", "112229.009000", "112229.011000", "112229.014000", "112229.016000", "112229.019000", "112229.021000", "112229.024000", "112229.026000", "112229.028000", "112229.031000", "112229.033000", "112229.036000", "112229.038000", "112229.041000", "112229.043000", "112308.995000", "112308.998000", "112309.001000", "112309.004000", "112309.006000", "112309.009000", "112309.011000", "112309.014000", "112309.016000", "112309.019000", "112309.021000", "112309.024000", "112309.026000", "112309.029000", "112309.031000", "112309.033000", "112309.036000", "112309.038000", "112309.041000", "112309.043000", "112348.995000", "112348.998000", "112349.001000", "112349.004000", "112349.006000", "112349.009000", "112349.011000", "112349.014000", "112349.016000", "112349.019000", "112349.027000", "112349.030000", "112349.032000", "112349.035000", "112349.037000", "112349.040000", "112349.042000", "112349.045000", "112349.047000", "112349.050000", "112428.995000", "112428.998000", "112429.001000", "112429.004000", "112429.006000", "112429.009000", "112429.011000", "112429.014000", "112429.016000", "112429.034000", "112429.037000", "112429.039000", "112429.042000", "112429.044000", "112429.047000", "112429.049000", "112429.052000", "112429.054000", "112429.056000", "112429.059000", "112508.995000", "112508.998000", "112509.000000", "112509.003000", "112509.005000", "112509.008000", "112509.010000", "112509.013000", "112509.018000", "112509.021000", "112509.024000", "112509.026000", "112509.029000", "112509.031000", "112509.033000", "112509.036000", "112509.038000", "112509.041000", "112509.043000", "112509.046000", "112548.995000", "112548.998000", "112549.001000", "112549.004000", "112549.006000", "112549.009000", "112549.011000", "112549.014000", "112549.016000", "112549.019000", "112549.021000", "112549.024000", "112549.026000", "112549.029000", "112549.031000", "112549.034000", "112549.036000", "112549.039000", "112549.041000", "112549.043000", "112628.995000", "112628.998000", "112629.002000", "112629.004000", "112629.007000", "112629.009000", "112629.011000", "112629.014000", "112629.016000", "112629.019000", "112629.021000", "112629.024000", "112629.026000", "112629.029000", "112629.031000", "112629.034000", "112629.036000", "112629.039000", "112629.041000", "112629.044000", "112708.995000", "112708.998000", "112709.001000", "112709.004000", "112709.006000", "112709.009000", "112709.011000", "112709.014000", "112709.016000", "112709.019000", "112709.021000", "112709.024000", "112709.026000", "112709.028000", "112709.031000", "112709.034000", "112709.036000", "112709.039000", "112709.041000", "112709.043000", "112748.995000", "112748.998000", "112749.000000", "112749.003000", "112749.005000", "112749.008000", "112749.010000", "112749.013000", "112749.015000", "112749.018000", "112749.020000", "112749.023000", "112749.025000", "112749.027000", "112749.030000", "112749.032000", "112749.035000", "112749.037000", "112749.040000", "112749.042000", "112828.995000", "112828.998000", "112829.000000", "112829.003000", "112829.005000", "112829.008000", "112829.010000", "112829.013000", "112829.015000", "112829.018000", "112829.020000", "112829.023000", "112829.025000", "112829.027000", "112829.030000", "112829.033000", "112829.035000", "112829.038000", "112829.040000", "112829.042000", "112908.995000", "112908.998000", "112909.000000", "112909.003000", "112909.005000", "112909.008000", "112909.010000", "112909.013000", "112909.015000", "112909.018000", "112909.020000", "112909.023000", "112909.025000", "112909.028000", "112909.030000", "112909.032000", "112909.035000", "112909.037000", "112909.040000", "112909.042000", "112948.995000", "112948.998000", "112949.001000", "112949.003000", "112949.006000", "112949.008000", "112949.011000", "112949.013000", "112949.016000", "112949.018000", "112949.021000", "112949.023000", "112949.026000", "112949.028000", "112949.030000", "112949.033000", "112949.035000", "112949.038000", "112949.040000", "112949.043000", "112952.713000", "112952.716000"],
      "InstanceCreationTime": ["111829.002000", "111829.005000", "111829.008000", "111829.010000", "111829.017000", "111829.019000", "111829.023000", "111829.029000", "111829.032000", "111829.035000", "111829.037000", "111829.040000", "111829.042000", "111829.048000", "111829.051000", "111829.053000", "111829.056000", "111829.058000", "111829.061000", "111829.063000", "111829.065000", "111829.068000", "111908.995000", "111908.998000", "111909.000000", "111909.003000", "111909.005000", "111909.008000", "111909.010000", "111909.013000", "111909.015000", "111909.018000", "111909.020000", "111909.023000", "111909.025000", "111909.028000", "111909.030000", "111909.032000", "111909.035000", "111909.037000", "111909.040000", "111909.042000", "111948.995000", "111948.998000", "111949.002000", "111949.004000", "111949.006000", "111949.009000", "111949.015000", "111949.017000", "111949.020000", "111949.022000", "111949.025000", "111949.027000", "111949.029000", "111949.032000", "111949.034000", "111949.037000", "111949.039000", "111949.042000", "111949.044000", "111949.047000", "112028.995000", "112028.998000", "112029.001000", "112029.003000", "112029.006000", "112029.008000", "112029.010000", "112029.013000", "112029.015000", "112029.018000", "112029.020000", "112029.023000", "112029.025000", "112029.028000", "112029.030000", "112029.033000", "112029.035000", "112029.037000", "112029.040000", "112029.042000", "112108.995000", "112108.998000", "112109.002000", "112109.004000", "112109.007000", "112109.009000", "112109.012000", "112109.014000", "112109.016000", "112109.019000", "112109.021000", "112109.024000", "112109.026000", "112109.029000", "112109.031000", "112109.034000", "112109.036000", "112109.039000", "112109.041000", "112109.044000", "112148.995000", "112148.998000", "112149.001000", "112149.004000", "112149.006000", "112149.009000", "112149.011000", "112149.014000", "112149.016000", "112149.019000", "112149.021000", "112149.024000", "112149.026000", "112149.029000", "112149.031000", "112149.033000", "112149.036000", "112149.038000", "112149.041000", "112149.047000", "112228.995000", "112228.998000", "112229.001000", "112229.004000", "112229.006000", "112229.009000", "112229.011000", "112229.014000", "112229.016000", "112229.019000", "112229.021000", "112229.024000", "112229.026000", "112229.028000", "112229.031000", "112229.033000", "112229.036000", "112229.038000", "112229.041000", "112229.043000", "112308.995000", "112308.998000", "112309.001000", "112309.004000", "112309.006000", "112309.009000", "112309.011000", "112309.014000", "112309.016000", "112309.019000", "112309.021000", "112309.024000", "112309.026000", "112309.029000", "112309.031000", "112309.033000", "112309.036000", "112309.038000", "112309.041000", "112309.043000", "112348.995000", "112348.998000", "112349.001000", "112349.004000", "112349.006000", "112349.009000", "112349.011000", "112349.014000", "112349.016000", "112349.019000", "112349.027000", "112349.030000", "112349.032000", "112349.035000", "112349.037000", "112349.040000", "112349.042000", "112349.045000", "112349.047000", "112349.050000", "112428.995000", "112428.998000", "112429.001000", "112429.004000", "112429.006000", "112429.009000", "112429.011000", "112429.014000", "112429.016000", "112429.034000", "112429.037000", "112429.039000", "112429.042000", "112429.044000", "112429.047000", "112429.049000", "112429.052000", "112429.054000", "112429.056000", "112429.059000", "112508.995000", "112508.998000", "112509.000000", "112509.003000", "112509.005000", "112509.008000", "112509.010000", "112509.013000", "112509.018000", "112509.021000", "112509.024000", "112509.026000", "112509.029000", "112509.031000", "112509.033000", "112509.036000", "112509.038000", "112509.041000", "112509.043000", "112509.046000", "112548.995000", "112548.998000", "112549.001000", "112549.004000", "112549.006000", "112549.009000", "112549.011000", "112549.014000", "112549.016000", "112549.019000", "112549.021000", "112549.024000", "112549.026000", "112549.029000", "112549.031000", "112549.034000", "112549.036000", "112549.039000", "112549.041000", "112549.043000", "112628.995000", "112628.998000", "112629.002000", "112629.004000", "112629.007000", "112629.009000", "112629.011000", "112629.014000", "112629.016000", "112629.019000", "112629.021000", "112629.024000", "112629.026000", "112629.029000", "112629.031000", "112629.034000", "112629.036000", "112629.039000", "112629.041000", "112629.044000", "112708.995000", "112708.998000", "112709.001000", "112709.004000", "112709.006000", "112709.009000", "112709.011000", "112709.014000", "112709.016000", "112709.019000", "112709.021000", "112709.024000", "112709.026000", "112709.028000", "112709.031000", "112709.034000", "112709.036000", "112709.039000", "112709.041000", "112709.043000", "112748.995000", "112748.998000", "112749.000000", "112749.003000", "112749.005000", "112749.008000", "112749.010000", "112749.013000", "112749.015000", "112749.018000", "112749.020000", "112749.023000", "112749.025000", "112749.027000", "112749.030000", "112749.032000", "112749.035000", "112749.037000", "112749.040000", "112749.042000", "112828.995000", "112828.998000", "112829.000000", "112829.003000", "112829.005000", "112829.008000", "112829.010000", "112829.013000", "112829.015000", "112829.018000", "112829.020000", "112829.023000", "112829.025000", "112829.027000", "112829.030000", "112829.033000", "112829.035000", "112829.038000", "112829.040000", "112829.042000", "112908.995000", "112908.998000", "112909.000000", "112909.003000", "112909.005000", "112909.008000", "112909.010000", "112909.013000", "112909.015000", "112909.018000", "112909.020000", "112909.023000", "112909.025000", "112909.028000", "112909.030000", "112909.032000", "112909.035000", "112909.037000", "112909.040000", "112909.042000", "112948.995000", "112948.998000", "112949.001000", "112949.003000", "112949.006000", "112949.008000", "112949.011000", "112949.013000", "112949.016000", "112949.018000", "112949.021000", "112949.023000", "112949.026000", "112949.028000", "112949.030000", "112949.033000", "112949.035000", "112949.038000", "112949.040000", "112949.043000", "112952.713000", "112952.716000"],
      "InstanceNumber": [1, 2, 3, 4, 5, 6, 7, 8, 9, 10, 11, 12, 13, 14, 15, 16, 17, 18, 19, 20, 21, 22, 23, 24, 25, 26, 27, 28, 29, 30, 31, 32, 33, 34, 35, 36, 37, 38, 39, 40, 41, 42, 43, 44, 45, 46, 47, 48, 49, 50, 51, 52, 53, 54, 55, 56, 57, 58, 59, 60, 61, 62, 63, 64, 65, 66, 67, 68, 69, 70, 71, 72, 73, 74, 75, 76, 77, 78, 79, 80, 81, 82, 83, 84, 85, 86, 87, 88, 89, 90, 91, 92, 93, 94, 95, 96, 97, 98, 99, 100, 101, 102, 103, 104, 105, 106, 107, 108, 109, 110, 111, 112, 113, 114, 115, 116, 117, 118, 119, 120, 121, 122, 123, 124, 125, 126, 127, 128, 129, 130, 131, 132, 133, 134, 135, 136, 137, 138, 139, 140, 141, 142, 143, 144, 145, 146, 147, 148, 149, 150, 151, 152, 153, 154, 155, 156, 157, 158, 159, 160, 161, 162, 163, 164, 165, 166, 167, 168, 169, 170, 171, 172, 173, 174, 175, 176, 177, 178, 179, 180, 181, 182, 183, 184, 185, 186, 187, 188, 189, 190, 191, 192, 193, 194, 195, 196, 197, 198, 199, 200, 201, 202, 203, 204, 205, 206, 207, 208, 209, 210, 211, 212, 213, 214, 215, 216, 217, 218, 219, 220, 221, 222, 223, 224, 225, 226, 227, 228, 229, 230, 231, 232, 233, 234, 235, 236, 237, 238, 239, 240, 241, 242, 243, 244, 245, 246, 247, 248, 249, 250, 251, 252, 253, 254, 255, 256, 257, 258, 259, 260, 261, 262, 263, 264, 265, 266, 267, 268, 269, 270, 271, 272, 273, 274, 275, 276, 277, 278, 279, 280, 281, 282, 283, 284, 285, 286, 287, 288, 289, 290, 291, 292, 293, 294, 295, 296, 297, 298, 299, 300, 301, 302, 303, 304, 305, 306, 307, 308, 309, 310, 311, 312, 313, 314, 315, 316, 317, 318, 319, 320, 321, 322, 323, 324, 325, 326, 327, 328, 329, 330, 331, 332, 333, 334, 335, 336, 337, 338, 339, 340, 341, 342, 343, 344, 345, 346, 347, 348, 349, 350, 351, 352, 353, 354, 355, 356, 357, 358, 359, 360, 361, 362, 363, 364],
      "LargestImagePixelValue": [3394, 3292, 3260, 3257, 3252, 3240, 3241, 3237, 3242, 3237, 3238, 3243, 3237, 3229, 3261, 3228, 3244, 3225, 3237, 3233, 3221, 3234, 3240, 3233, 3221, 3243, 3247, 3237, 3220, 3215, 3225, 3216, 3217, 3193, 3198, 3211, 3209, 3202, 3223, 3213, 3213, 3216, 3205, 3220, 3200, 3198, 3193, 3187, 3195, 3209, 3194, 3198, 3183, 3211, 3195, 3191, 3191, 3197, 3192, 3195, 3198, 3189, 3196, 3176, 3184, 3189, 3175, 3179, 3225, 3184, 3200, 3197, 3203, 3186, 3191, 3189, 3184, 3182, 3218, 3174, 3179, 3187, 3182, 3183, 3176, 3182, 3186, 3180, 3177, 3203, 3211, 3213, 3183, 3185, 3173, 3195, 3180, 3196, 3199, 3197, 3199, 3201, 3181, 3194, 3198, 3188, 3184, 3182, 3185, 3196, 3199, 3192, 3193, 3194, 3186, 3181, 3181, 3191, 3189, 3193, 3208, 3203, 3186, 3191, 3200, 3199, 3195, 3202, 3206, 3195, 3202, 3208, 3198, 3198, 3193, 3188, 3197, 3199, 3202, 3201, 3194, 3201, 3193, 3216, 3189, 3189, 3193, 3183, 3192, 3198, 3197, 3228, 3179, 3169, 3174, 3190, 3197, 3197, 3192, 3198, 3189, 3196, 3207, 3201, 3178, 3180, 3185, 3181, 3183, 3181, 3190, 3188, 3184, 3197, 3184, 3178, 3186, 3184, 3201, 3188, 3207, 3198, 3203, 3180, 3177, 3181, 3206, 3190, 3184, 3182, 3192, 3191, 3179, 3189, 3185, 3181, 3185, 3182, 3203, 3173, 3187, 3188, 3207, 3208, 3195, 3195, 3191, 3188, 3192, 3199, 3206, 3192, 3184, 3174, 3175, 3182, 3188, 3189, 3196, 3191, 3189, 3197, 3189, 3192, 3189, 3184, 3181, 3186, 3191, 3197, 3210, 3192, 3188, 3197, 3206, 3182, 3193, 3192, 3210, 3197, 3187, 3228, 3197, 3206, 3186, 3189, 3194, 3186, 3193, 3214, 3189, 3185, 3174, 3183, 3179, 3183, 3191, 3197, 3188, 3182, 3178, 3194, 3180, 3194, 3183, 3183, 3198, 3196, 3202, 3190, 3197, 3188, 3161, 3173, 3173, 3183, 3185, 3190, 3200, 3209, 3186, 3181, 3181, 3182, 3184, 3181, 3188, 3186, 3198, 3193, 3190, 3195, 3195, 3208, 3189, 3176, 3183, 3197, 3188, 3183, 3228, 3193, 3204, 3192, 3178, 3186, 3193, 3185, 3191, 3190, 3187, 3186, 3186, 3187, 3183, 3187, 3179, 3191, 3192, 3186, 3196, 3201, 3185, 3195, 3188, 3193, 3199, 3198, 3198, 3203, 3197, 3189, 3169, 3184, 3182, 3192, 3190, 3205, 3215, 3201, 3184, 3191, 3182, 3183, 3178, 3179, 3190, 3179, 3188, 3181, 3197, 3183, 3189, 3187, 3188, 3181, 3190, 3189, 3179, 3184, 3206, 3201, 3182, 3196],
