{
  "AcquisitionMatrixPE": 64,
  "AcquisitionNumber": 1,
  "AcquisitionTime": "10:59:2.180000",
  "BandwidthPerPixelPhaseEncode": 25.202,
  "BaseResolution": 64,
  "BodyPartExamined": "BRAIN",
  "ConsistencyInfo": "N4_VE11C_LATEST_20160120",
  "ConversionSoftware": "dcm2niix",
  "ConversionSoftwareVersion": "v1.0.20201102",
  "DerivedVendorReportedEchoSpacing": 0.00061999,
  "DeviceSerialNumber": "45758",
  "DwellTime": 4.3e-06,
  "EchoTime": 0.03,
  "EchoTrainLength": 64,
  "EffectiveEchoSpacing": 0.00061999,
  "FlipAngle": 90,
  "ImageOrientationPatientDICOM": [0.998435, -0.0474352, 0.0296126, 0.0505785, 0.991909, -0.116438],
  "ImageType": [
    "ORIGINAL",
    "PRIMARY",
    "M",
    "ND",
    "MOSAIC"
],
  "ImagingFrequency": 123.2,
  "InPlanePhaseEncodingDirectionDICOM": "ROW",
  "InstitutionAddress": "Street StreetNo,City /652E4B/,District,KR,ZIP",
  "InstitutionName": "DGMIF",
  "InstitutionalDepartmentName": "Department",
  "MRAcquisitionType": "2D",
  "MagneticFieldStrength": 3,
  "Manufacturer": "Siemens",
  "ManufacturersModelName": "Skyra",
  "Modality": "MR",
  "PartialFourier": 1,
  "PatientPosition": "HFS",
  "PercentPhaseFOV": 100,
  "PercentSampling": 100,
  "PhaseEncodingDirection": "i",
  "PhaseEncodingSteps": 64,
  "PhaseResolution": 1,
  "PixelBandwidth": 1815,
  "ProcedureStepDescription": "DGMIF^DGIST",
  "ProtocolName": "EPI_DGIST_1",
  "PulseSequenceDetails": "%SiemensSeq%\\ep2d_bold",
  "ReceiveCoilActiveElements": "HC1-6",
  "ReceiveCoilName": "HeadNeck_64",
  "ReconMatrixPE": 64,
  "RepetitionTime": 2,
  "SAR": 0.107141,
  "ScanOptions": "FS",
  "ScanningSequence": "EP",
  "SequenceName": "*epfid2d1_64",
  "SequenceVariant": "SK",
  "SeriesDescription": "EPI_DGIST_1",
  "SeriesNumber": 2,
  "ShimSetting": [-9730, -13650, -8297, 442, -352, 121, -670, -84],
  "SliceThickness": 4,
  "SliceTiming": [0.99, 0, 1.0575, 0.0675, 1.1225, 0.1325, 1.1875, 0.1975, 1.255, 0.265, 1.32, 0.33, 1.385, 0.3975, 1.4525, 0.4625, 1.5175, 0.5275, 1.585, 0.595, 1.65, 0.66, 1.715, 0.7275, 1.7825, 0.7925, 1.8475, 0.8575, 1.915, 0.925],
  "SoftwareVersions": "syngo MR E11",
  "SpacingBetweenSlices": 4.8,
  "StationName": "AWP45758",
  "TaskName": "asrt",
  "TotalReadoutTime": 0.0390594,
  "TxRefAmp": 290.972,
  "dcmmeta_affine": [
    [-2.9953057765960693, 0.15173564851284027, 0.1144789457321167, 91.13427734375],
    [0.14230547845363617, 2.9757277965545654, -0.565216600894928, -125.33332824707031],
    [0.08883785456418991, 0.3493136763572693, 4.765230655670166, -69.3935775756836],
    [0.0, 0.0, 0.0, 1.0]
],
  "dcmmeta_reorient_transform": [
    [0.0, -1.0, 0.0, 63.0],
    [1.0, 0.0, 0.0, 0.0],
    [0.0, 0.0, 1.0, 0.0],
    [0.0, 0.0, 0.0, 1.0]
],
  "dcmmeta_shape": [64, 64, 30, 514],
  "dcmmeta_slice_dim": 2,
  "dcmmeta_version": 0.6,
  "global": {
    "const": {
      "AcquisitionMatrix": [0, 64, 64, 0],
      "AngioFlag": "N",
      "BitsAllocated": 16,
      "BitsStored": 12,
      "BodyPartExamined": "BRAIN",
      "Columns": 384,
      "EchoNumbers": 1,
      "EchoTime": 30.0,
      "EchoTrainLength": 64,
      "FlipAngle": 90.0,
      "HighBit": 11,
      "ImageOrientationPatient": [0.99843527496362, -0.0474351618898, 0.02961261766228, 0.05057854969633, 0.99190928430141, -0.1164378891396],
      "ImagePositionPatient": [-604.22026195485, -515.48510255047, -5.710685712816],
      "ImageType": [
        "ORIGINAL",
        "PRIMARY",
        "M",
        "ND",
        "MOSAIC"
],
      "ImagedNucleus": "1H",
      "ImagingFrequency": 123.200143,
      "InPlanePhaseEncodingDirection": "ROW",
      "MRAcquisitionType": "2D",
      "MagneticFieldStrength": 3.0,
      "Manufacturer": "SIEMENS",
      "ManufacturerModelName": "Skyra",
      "Modality": "MR",
      "NumberOfAverages": 1.0,
      "NumberOfPhaseEncodingSteps": 64,
      "PercentPhaseFieldOfView": 100.0,
      "PercentSampling": 100.0,
      "PerformedProcedureStepStartTime": "104451.534000",
      "PhotometricInterpretation": "MONOCHROME2",
      "PixelBandwidth": 1815.0,
      "PixelRepresentation": 0,
      "PixelSpacing": [3.0, 3.0],
      "ProtocolName": "EPI_DGIST_1",
      "RepetitionTime": 2000.0,
      "Rows": 384,
      "SAR": 0.10714112768858,
      "SamplesPerPixel": 1,
      "ScanOptions": "FS",
      "ScanningSequence": "EP",
      "SequenceName": "*epfid2d1_64",
      "SequenceVariant": "SK",
      "SeriesDescription": "EPI_DGIST_1",
      "SeriesNumber": 2,
      "SeriesTime": "105948.924000",
      "SliceLocation": -51.958953372274,
      "SliceThickness": 4.0,
      "SmallestImagePixelValue": 0,
      "SoftwareVersions": "syngo MR E11",
      "SpacingBetweenSlices": 4.7999999580044,
      "SpecificCharacterSet": "ISO_IR 100",
      "StudyID": "1",
      "StudyTime": "104451.388000",
      "TransmitCoilName": "Body",
      "VariableFlipAngleFlag": "N",
      "WindowCenterWidthExplanation": "Algo1",
      "dBdt": 0.0},
    "slices": {}
  },
  "time": {
    "samples": {
      "AcquisitionNumber": [1, 2, 3, 4, 5, 6, 7, 8, 9, 10, 11, 12, 13, 14, 15, 16, 17, 18, 19, 20, 21, 22, 23, 24, 25, 26, 27, 28, 29, 30, 31, 32, 33, 34, 35, 36, 37, 38, 39, 40, 41, 42, 43, 44, 45, 46, 47, 48, 49, 50, 51, 52, 53, 54, 55, 56, 57, 58, 59, 60, 61, 62, 63, 64, 65, 66, 67, 68, 69, 70, 71, 72, 73, 74, 75, 76, 77, 78, 79, 80, 81, 82, 83, 84, 85, 86, 87, 88, 89, 90, 91, 92, 93, 94, 95, 96, 97, 98, 99, 100, 101, 102, 103, 104, 105, 106, 107, 108, 109, 110, 111, 112, 113, 114, 115, 116, 117, 118, 119, 120, 121, 122, 123, 124, 125, 126, 127, 128, 129, 130, 131, 132, 133, 134, 135, 136, 137, 138, 139, 140, 141, 142, 143, 144, 145, 146, 147, 148, 149, 150, 151, 152, 153, 154, 155, 156, 157, 158, 159, 160, 161, 162, 163, 164, 165, 166, 167, 168, 169, 170, 171, 172, 173, 174, 175, 176, 177, 178, 179, 180, 181, 182, 183, 184, 185, 186, 187, 188, 189, 190, 191, 192, 193, 194, 195, 196, 197, 198, 199, 200, 201, 202, 203, 204, 205, 206, 207, 208, 209, 210, 211, 212, 213, 214, 215, 216, 217, 218, 219, 220, 221, 222, 223, 224, 225, 226, 227, 228, 229, 230, 231, 232, 233, 234, 235, 236, 237, 238, 239, 240, 241, 242, 243, 244, 245, 246, 247, 248, 249, 250, 251, 252, 253, 254, 255, 256, 257, 258, 259, 260, 261, 262, 263, 264, 265, 266, 267, 268, 269, 270, 271, 272, 273, 274, 275, 276, 277, 278, 279, 280, 281, 282, 283, 284, 285, 286, 287, 288, 289, 290, 291, 292, 293, 294, 295, 296, 297, 298, 299, 300, 301, 302, 303, 304, 305, 306, 307, 308, 309, 310, 311, 312, 313, 314, 315, 316, 317, 318, 319, 320, 321, 322, 323, 324, 325, 326, 327, 328, 329, 330, 331, 332, 333, 334, 335, 336, 337, 338, 339, 340, 341, 342, 343, 344, 345, 346, 347, 348, 349, 350, 351, 352, 353, 354, 355, 356, 357, 358, 359, 360, 361, 362, 363, 364, 365, 366, 367, 368, 369, 370, 371, 372, 373, 374, 375, 376, 377, 378, 379, 380, 381, 382, 383, 384, 385, 386, 387, 388, 389, 390, 391, 392, 393, 394, 395, 396, 397, 398, 399, 400, 401, 402, 403, 404, 405, 406, 407, 408, 409, 410, 411, 412, 413, 414, 415, 416, 417, 418, 419, 420, 421, 422, 423, 424, 425, 426, 427, 428, 429, 430, 431, 432, 433, 434, 435, 436, 437, 438, 439, 440, 441, 442, 443, 444, 445, 446, 447, 448, 449, 450, 451, 452, 453, 454, 455, 456, 457, 458, 459, 460, 461, 462, 463, 464, 465, 466, 467, 468, 469, 470, 471, 472, 473, 474, 475, 476, 477, 478, 479, 480, 481, 482, 483, 484, 485, 486, 487, 488, 489, 490, 491, 492, 493, 494, 495, 496, 497, 498, 499, 500, 501, 502, 503, 504, 505, 506, 507, 508, 509, 510, 511, 512, 513, 514],
      "AcquisitionTime": ["105902.180000", "105904.180000", "105906.180000", "105908.180000", "105910.180000", "105912.180000", "105914.180000", "105916.180000", "105918.180000", "105920.180000", "105922.180000", "105924.180000", "105926.180000", "105928.180000", "105930.180000", "105932.180000", "105934.180000", "105936.180000", "105938.180000", "105940.180000", "105942.180000", "105944.180000", "105946.180000", "105948.180000", "105950.180000", "105952.180000", "105954.180000", "105956.180000", "105958.180000", "110000.180000", "110002.180000", "110004.180000", "110006.180000", "110008.180000", "110010.180000", "110012.180000", "110014.180000", "110016.180000", "110018.180000", "110020.180000", "110022.180000", "110024.180000", "110026.180000", "110028.180000", "110030.180000", "110032.180000", "110034.180000", "110036.180000", "110038.180000", "110040.180000", "110042.180000", "110044.180000", "110046.180000", "110048.180000", "110050.180000", "110052.180000", "110054.180000", "110056.180000", "110058.180000", "110100.180000", "110102.180000", "110104.180000", "110106.180000", "110108.180000", "110110.180000", "110112.180000", "110114.180000", "110116.180000", "110118.180000", "110120.180000", "110122.180000", "110124.180000", "110126.180000", "110128.180000", "110130.180000", "110132.180000", "110134.180000", "110136.180000", "110138.180000", "110140.180000", "110142.180000", "110144.180000", "110146.180000", "110148.180000", "110150.180000", "110152.180000", "110154.180000", "110156.180000", "110158.180000", "110200.180000", "110202.180000", "110204.180000", "110206.180000", "110208.180000", "110210.180000", "110212.180000", "110214.180000", "110216.180000", "110218.180000", "110220.180000", "110222.180000", "110224.180000", "110226.180000", "110228.180000", "110230.180000", "110232.180000", "110234.180000", "110236.180000", "110238.180000", "110240.180000", "110242.180000", "110244.180000", "110246.180000", "110248.180000", "110250.180000", "110252.180000", "110254.180000", "110256.180000", "110258.180000", "110300.180000", "110302.180000", "110304.180000", "110306.180000", "110308.180000", "110310.180000", "110312.180000", "110314.180000", "110316.180000", "110318.180000", "110320.180000", "110322.180000", "110324.180000", "110326.180000", "110328.180000", "110330.180000", "110332.180000", "110334.180000", "110336.180000", "110338.180000", "110340.180000", "110342.180000", "110344.180000", "110346.180000", "110348.180000", "110350.180000", "110352.180000", "110354.180000", "110356.180000", "110358.180000", "110400.180000", "110402.180000", "110404.180000", "110406.180000", "110408.180000", "110410.180000", "110412.180000", "110414.180000", "110416.180000", "110418.180000", "110420.180000", "110422.180000", "110424.180000", "110426.180000", "110428.180000", "110430.180000", "110432.180000", "110434.180000", "110436.180000", "110438.180000", "110440.180000", "110442.180000", "110444.180000", "110446.180000", "110448.180000", "110450.180000", "110452.180000", "110454.180000", "110456.180000", "110458.180000", "110500.180000", "110502.180000", "110504.180000", "110506.180000", "110508.180000", "110510.180000", "110512.180000", "110514.180000", "110516.180000", "110518.180000", "110520.180000", "110522.180000", "110524.180000", "110526.180000", "110528.180000", "110530.180000", "110532.180000", "110534.180000", "110536.180000", "110538.180000", "110540.180000", "110542.180000", "110544.180000", "110546.180000", "110548.180000", "110550.180000", "110552.180000", "110554.180000", "110556.180000", "110558.180000", "110600.180000", "110602.180000", "110604.180000", "110606.180000", "110608.180000", "110610.180000", "110612.180000", "110614.180000", "110616.180000", "110618.180000", "110620.180000", "110622.180000", "110624.180000", "110626.180000", "110628.180000", "110630.180000", "110632.180000", "110634.180000", "110636.180000", "110638.180000", "110640.180000", "110642.180000", "110644.180000", "110646.180000", "110648.180000", "110650.180000", "110652.180000", "110654.180000", "110656.180000", "110658.180000", "110700.180000", "110702.180000", "110704.180000", "110706.180000", "110708.180000", "110710.180000", "110712.180000", "110714.180000", "110716.180000", "110718.180000", "110720.180000", "110722.180000", "110724.180000", "110726.180000", "110728.180000", "110730.180000", "110732.180000", "110734.180000", "110736.180000", "110738.180000", "110740.180000", "110742.180000", "110744.180000", "110746.180000", "110748.180000", "110750.180000", "110752.180000", "110754.180000", "110756.180000", "110758.180000", "110800.180000", "110802.180000", "110804.180000", "110806.180000", "110808.180000", "110810.180000", "110812.180000", "110814.180000", "110816.180000", "110818.180000", "110820.180000", "110822.180000", "110824.180000", "110826.180000", "110828.180000", "110830.180000", "110832.180000", "110834.180000", "110836.180000", "110838.180000", "110840.180000", "110842.180000", "110844.180000", "110846.180000", "110848.180000", "110850.180000", "110852.180000", "110854.180000", "110856.180000", "110858.180000", "110900.180000", "110902.180000", "110904.180000", "110906.180000", "110908.180000", "110910.180000", "110912.180000", "110914.180000", "110916.180000", "110918.180000", "110920.180000", "110922.180000", "110924.180000", "110926.180000", "110928.180000", "110930.180000", "110932.180000", "110934.180000", "110936.180000", "110938.180000", "110940.180000", "110942.180000", "110944.180000", "110946.180000", "110948.180000", "110950.180000", "110952.180000", "110954.180000", "110956.180000", "110958.180000", "111000.180000", "111002.180000", "111004.180000", "111006.180000", "111008.180000", "111010.180000", "111012.180000", "111014.180000", "111016.180000", "111018.180000", "111020.180000", "111022.180000", "111024.180000", "111026.180000", "111028.180000", "111030.180000", "111032.180000", "111034.180000", "111036.180000", "111038.180000", "111040.180000", "111042.180000", "111044.180000", "111046.180000", "111048.180000", "111050.180000", "111052.180000", "111054.180000", "111056.180000", "111058.180000", "111100.180000", "111102.180000", "111104.180000", "111106.180000", "111108.180000", "111110.180000", "111112.180000", "111114.180000", "111116.180000", "111118.180000", "111120.180000", "111122.180000", "111124.180000", "111126.180000", "111128.180000", "111130.180000", "111132.180000", "111134.180000", "111136.180000", "111138.180000", "111140.180000", "111142.180000", "111144.180000", "111146.180000", "111148.180000", "111150.180000", "111152.180000", "111154.180000", "111156.180000", "111158.180000", "111200.180000", "111202.180000", "111204.180000", "111206.180000", "111208.180000", "111210.180000", "111212.180000", "111214.180000", "111216.180000", "111218.180000", "111220.180000", "111222.180000", "111224.180000", "111226.180000", "111228.180000", "111230.180000", "111232.180000", "111234.180000", "111236.180000", "111238.180000", "111240.180000", "111242.180000", "111244.180000", "111246.180000", "111248.180000", "111250.180000", "111252.180000", "111254.180000", "111256.180000", "111258.180000", "111300.180000", "111302.180000", "111304.180000", "111306.180000", "111308.180000", "111310.180000", "111312.180000", "111314.180000", "111316.180000", "111318.180000", "111320.180000", "111322.180000", "111324.180000", "111326.180000", "111328.180000", "111330.180000", "111332.180000", "111334.180000", "111336.180000", "111338.180000", "111340.180000", "111342.180000", "111344.180000", "111346.180000", "111348.180000", "111350.180000", "111352.180000", "111354.180000", "111356.180000", "111358.180000", "111400.180000", "111402.180000", "111404.180000", "111406.180000", "111408.180000", "111410.180000", "111412.180000", "111414.180000", "111416.180000", "111418.180000", "111420.180000", "111422.180000", "111424.180000", "111426.180000", "111428.180000", "111430.180000", "111432.180000", "111434.180000", "111436.180000", "111438.180000", "111440.180000", "111442.180000", "111444.180000", "111446.180000", "111448.180000", "111450.180000", "111452.180000", "111454.180000", "111456.180000", "111458.180000", "111500.180000", "111502.180000", "111504.180000", "111506.180000", "111508.180000", "111510.180000", "111512.180000", "111514.180000", "111516.180000", "111518.180000", "111520.180000", "111522.180000", "111524.180000", "111526.180000", "111528.180000", "111530.180000", "111532.180000", "111534.180000", "111536.180000", "111538.180000", "111540.180000", "111542.180000", "111544.180000", "111546.180000", "111548.180000", "111550.180000", "111552.180000", "111554.180000", "111556.180000", "111558.180000", "111600.180000", "111602.180000", "111604.180000", "111606.180000", "111608.180000"],
      "ContentTime": ["105948.929000", "105948.933000", "105948.935000", "105948.938000", "105948.940000", "105948.951000", "105948.954000", "105948.956000", "105948.963000", "105948.965000", "105948.968000", "105948.970000", "105948.973000", "105948.975000", "105948.983000", "105948.985000", "105948.988000", "105948.990000", "105948.993000", "105948.995000", "105948.998000", "105949.002000", "105949.004000", "110028.922000", "110028.925000", "110028.928000", "110028.930000", "110028.932000", "110028.935000", "110028.937000", "110028.940000", "110028.942000", "110028.945000", "110028.947000", "110028.950000", "110028.952000", "110028.954000", "110028.957000", "110028.959000", "110028.962000", "110028.964000", "110028.967000", "110028.970000", "110048.922000", "110048.925000", "110048.927000", "110048.930000", "110048.932000", "110048.935000", "110048.937000", "110048.940000", "110048.942000", "110048.944000", "110128.922000", "110128.925000", "110128.928000", "110128.930000", "110128.933000", "110128.935000", "110128.937000", "110128.940000", "110128.942000", "110128.945000", "110128.948000", "110128.950000", "110128.952000", "110128.955000", "110128.957000", "110128.960000", "110128.973000", "110128.975000", "110128.978000", "110128.980000", "110208.922000", "110208.925000", "110208.927000", "110208.930000", "110208.933000", "110208.942000", "110208.944000", "110208.947000", "110208.949000", "110208.952000", "110208.954000", "110208.957000", "110208.959000", "110208.962000", "110208.964000", "110208.967000", "110208.969000", "110208.972000", "110208.974000", "110208.977000", "110248.922000", "110248.925000", "110248.928000", "110248.930000", "110248.933000", "110248.935000", "110248.938000", "110248.940000", "110248.942000", "110248.945000", "110248.947000", "110248.950000", "110248.952000", "110248.955000", "110248.964000", "110248.967000", "110248.969000", "110248.972000", "110248.974000", "110248.977000", "110328.922000", "110328.925000", "110328.928000", "110328.930000", "110328.932000", "110328.935000", "110328.937000", "110328.940000", "110328.942000", "110328.945000", "110328.947000", "110328.950000", "110328.952000", "110328.955000", "110328.957000", "110328.960000", "110328.962000", "110328.965000", "110328.967000", "110328.969000", "110408.922000", "110408.925000", "110408.927000", "110408.930000", "110408.933000", "110408.935000", "110408.937000", "110408.940000", "110408.942000", "110408.945000", "110408.947000", "110408.950000", "110408.952000", "110408.955000", "110408.957000", "110408.968000", "110408.970000", "110408.972000", "110408.975000", "110408.977000", "110448.922000", "110448.925000", "110448.927000", "110448.930000", "110448.932000", "110448.935000", "110448.937000", "110448.940000", "110448.942000", "110448.945000", "110448.947000", "110448.950000", "110448.952000", "110448.955000", "110448.957000", "110448.959000", "110448.962000", "110448.965000", "110448.967000", "110448.970000", "110528.922000", "110528.925000", "110528.927000", "110528.930000", "110528.932000", "110528.935000", "110528.937000", "110528.940000", "110528.942000", "110528.945000", "110528.947000", "110528.950000", "110528.952000", "110528.954000", "110528.957000", "110528.959000", "110528.962000", "110528.964000", "110528.967000", "110528.970000", "110608.922000", "110608.925000", "110608.928000", "110608.930000", "110608.933000", "110608.935000", "110608.938000", "110608.940000", "110608.943000", "110608.945000", "110608.948000", "110608.950000", "110608.952000", "110608.955000", "110608.957000", "110608.960000", "110608.962000", "110608.965000", "110608.967000", "110608.985000", "110648.922000", "110648.925000", "110648.927000", "110648.930000", "110648.932000", "110648.935000", "110648.937000", "110648.940000", "110648.942000", "110648.945000", "110648.947000", "110648.950000", "110648.952000", "110648.955000", "110648.957000", "110648.960000", "110648.962000", "110648.965000", "110648.967000", "110648.969000", "110728.922000", "110728.925000", "110728.927000", "110728.930000", "110728.932000", "110728.935000", "110728.937000", "110728.940000", "110728.942000", "110728.945000", "110728.947000", "110728.950000", "110728.952000", "110728.954000", "110728.957000", "110728.959000", "110728.962000", "110728.964000", "110728.967000", "110728.969000", "110808.922000", "110808.925000", "110808.928000", "110808.930000", "110808.933000", "110808.935000", "110808.938000", "110808.940000", "110808.942000", "110808.945000", "110808.947000", "110808.950000", "110808.952000", "110808.955000", "110808.957000", "110808.960000", "110808.962000", "110808.965000", "110808.967000", "110808.970000", "110848.923000", "110848.926000", "110848.929000", "110848.931000", "110848.934000", "110848.936000", "110848.938000", "110848.941000", "110848.943000", "110848.946000", "110848.948000", "110848.951000", "110848.953000", "110848.956000", "110848.958000", "110848.960000", "110848.963000", "110848.965000", "110848.968000", "110848.970000", "110928.922000", "110928.925000", "110928.928000", "110928.930000", "110928.933000", "110928.935000", "110928.938000", "110928.940000", "110928.942000", "110928.945000", "110928.947000", "110928.950000", "110928.952000", "110928.955000", "110928.957000", "110928.960000", "110928.962000", "110928.965000", "110928.967000", "110928.969000", "111008.922000", "111008.925000", "111008.928000", "111008.930000", "111008.932000", "111008.935000", "111008.938000", "111008.940000", "111008.943000", "111008.945000", "111008.947000", "111008.950000", "111008.953000", "111008.955000", "111008.957000", "111008.960000", "111008.962000", "111008.965000", "111008.967000", "111008.970000", "111048.922000", "111048.925000", "111048.928000", "111048.930000", "111048.933000", "111048.935000", "111048.938000", "111048.941000", "111048.943000", "111048.946000", "111048.948000", "111048.951000", "111048.953000", "111048.956000", "111048.958000", "111048.960000", "111048.963000", "111048.965000", "111048.968000", "111048.970000", "111128.922000", "111128.925000", "111128.927000", "111128.930000", "111128.932000", "111128.935000", "111128.937000", "111128.940000", "111128.943000", "111128.945000", "111128.948000", "111128.950000", "111128.952000", "111128.955000", "111128.957000", "111128.960000", "111128.962000", "111128.965000", "111128.967000", "111128.970000", "111208.922000", "111208.925000", "111208.927000", "111208.930000", "111208.932000", "111208.935000", "111208.937000", "111208.940000", "111208.942000", "111208.945000", "111208.947000", "111208.950000", "111208.952000", "111208.955000", "111208.957000", "111208.960000", "111208.962000", "111208.965000", "111208.967000", "111208.970000", "111248.922000", "111248.925000", "111248.928000", "111248.930000", "111248.932000", "111248.935000", "111248.937000", "111248.940000", "111248.942000", "111248.945000", "111248.947000", "111248.950000", "111248.953000", "111248.955000", "111248.958000", "111248.960000", "111248.962000", "111248.965000", "111248.967000", "111248.970000", "111328.923000", "111328.926000", "111328.929000", "111328.931000", "111328.933000", "111328.936000", "111328.938000", "111328.941000", "111328.943000", "111328.946000", "111328.948000", "111328.951000", "111328.953000", "111328.956000", "111328.958000", "111328.961000", "111328.963000", "111328.966000", "111328.968000", "111328.971000", "111408.922000", "111408.925000", "111408.928000", "111408.930000", "111408.932000", "111408.935000", "111408.937000", "111408.940000", "111408.942000", "111408.945000", "111408.947000", "111408.950000", "111408.952000", "111408.955000", "111408.957000", "111408.960000", "111408.962000", "111408.965000", "111408.967000", "111408.970000", "111448.922000", "111448.925000", "111448.928000", "111448.930000", "111448.933000", "111448.935000", "111448.938000", "111448.940000", "111448.943000", "111448.945000", "111448.947000", "111448.950000", "111448.952000", "111448.955000", "111448.957000", "111448.960000", "111448.962000", "111448.965000", "111448.967000", "111448.970000", "111528.922000", "111528.925000", "111528.928000", "111528.930000", "111528.933000", "111528.935000", "111528.938000", "111528.940000", "111528.942000", "111528.945000", "111528.947000", "111528.950000", "111528.952000", "111528.955000", "111528.957000", "111528.960000", "111528.962000", "111528.965000", "111528.967000", "111528.970000", "111608.922000", "111608.925000", "111608.928000", "111608.930000", "111608.932000", "111608.935000", "111608.937000", "111608.940000", "111608.942000", "111608.945000", "111608.947000", "111608.950000", "111608.952000", "111608.955000", "111608.957000", "111608.960000", "111608.962000", "111608.965000", "111608.967000", "111608.970000", "111609.574000"],
