{
  "AcquisitionMatrixPE": 64,
  "AcquisitionNumber": 1,
  "AcquisitionTime": "13:18:5.710000",
  "BandwidthPerPixelPhaseEncode": 25.202,
  "BaseResolution": 64,
  "BodyPartExamined": "BRAIN",
  "ConsistencyInfo": "N4_VE11C_LATEST_20160120",
  "ConversionSoftware": "dcm2niix",
  "ConversionSoftwareVersion": "v1.0.20201102",
  "DerivedVendorReportedEchoSpacing": 0.00061999,
  "DeviceSerialNumber": "45758",
  "DwellTime": 4.3e-06,
  "EchoTime": 0.03,
  "EchoTrainLength": 64,
  "EffectiveEchoSpacing": 0.00061999,
  "FlipAngle": 90,
  "ImageOrientationPatientDICOM": [0.999986, 0.00522328, -0.000747737, -0.00523596, 0.999822, -0.0181014],
  "ImageType": [
    "ORIGINAL",
    "PRIMARY",
    "M",
    "ND",
    "MOSAIC"
],
  "ImagingFrequency": 123.2,
  "InPlanePhaseEncodingDirectionDICOM": "ROW",
  "InstitutionAddress": "Street StreetNo,City /652E4B/,District,KR,ZIP",
  "InstitutionName": "DGMIF",
  "InstitutionalDepartmentName": "Department",
  "MRAcquisitionType": "2D",
  "MagneticFieldStrength": 3,
  "Manufacturer": "Siemens",
  "ManufacturersModelName": "Skyra",
  "Modality": "MR",
  "PartialFourier": 1,
  "PatientPosition": "HFS",
  "PercentPhaseFOV": 100,
  "PercentSampling": 100,
  "PhaseEncodingDirection": "i",
  "PhaseEncodingSteps": 64,
  "PhaseResolution": 1,
  "PixelBandwidth": 1815,
  "ProcedureStepDescription": "DGMIF^DGIST",
  "ProtocolName": "EPI_DGIST_3",
  "PulseSequenceDetails": "%SiemensSeq%\\ep2d_bold",
  "ReceiveCoilActiveElements": "HC1-7",
  "ReceiveCoilName": "HeadNeck_64",
  "ReconMatrixPE": 64,
  "RepetitionTime": 2,
  "SAR": 0.141053,
  "ScanOptions": "FS",
  "ScanningSequence": "EP",
  "SequenceName": "*epfid2d1_64",
  "SequenceVariant": "SK",
  "SeriesDescription": "EPI_DGIST_3",
  "SeriesNumber": 4,
  "ShimSetting": [-9751, -13739, -8174, 293, -484, -583, -486, -77],
  "SliceThickness": 4,
  "SliceTiming": [0.9875, 0, 1.055, 0.065, 1.12, 0.13, 1.1875, 0.1975, 1.2525, 0.2625, 1.3175, 0.33, 1.385, 0.395, 1.45, 0.46, 1.5175, 0.5275, 1.5825, 0.5925, 1.6475, 0.6575, 1.715, 0.725, 1.78, 0.79, 1.8475, 0.8575, 1.9125, 0.9225],
  "SoftwareVersions": "syngo MR E11",
  "SpacingBetweenSlices": 4.8,
  "StationName": "AWP45758",
  "TaskName": "asrt",
  "TotalReadoutTime": 0.0390594,
  "TxRefAmp": 318.968,
  "dcmmeta_affine": [
    [-2.9999582767486572, -0.015707887709140778, -0.0031346643809229136, 94.25601959228516],
    [-0.015669846907258034, 2.999467372894287, -0.08690425008535385, -118.25608825683594],
    [-0.002243209630250931, 0.05430416390299797, 4.799212455749512, -58.72024154663086],
    [0.0, 0.0, 0.0, 1.0]
],
  "dcmmeta_reorient_transform": [
    [0.0, -1.0, 0.0, 63.0],
    [1.0, 0.0, 0.0, 0.0],
    [0.0, 0.0, 1.0, 0.0],
    [0.0, 0.0, 0.0, 1.0]
],
  "dcmmeta_shape": [64, 64, 30, 364],
  "dcmmeta_slice_dim": 2,
  "dcmmeta_version": 0.6,
  "global": {
    "const": {
      "AcquisitionMatrix": [0, 64, 64, 0],
      "AngioFlag": "N",
      "BitsAllocated": 16,
      "BitsStored": 12,
      "BodyPartExamined": "BRAIN",
      "Columns": 384,
      "EchoNumbers": 1,
      "EchoTime": 30.0,
      "EchoTrainLength": 64,
      "FlipAngle": 90.0,
      "HighBit": 11,
      "ImageOrientationPatient": [0.99998607900923, 0.00522328228748, -0.0007477365156, -0.0052359628339, 0.99982244645678, -0.0181013881893],
      "ImagePositionPatient": [-570.74648150781, -553.13230716392, -46.251500971708],
      "ImageType": [
        "ORIGINAL",
        "PRIMARY",
        "M",
        "ND",
        "MOSAIC"
],
      "ImagedNucleus": "1H",
      "ImagingFrequency": 123.200156,
      "InPlanePhaseEncodingDirection": "ROW",
      "MRAcquisitionType": "2D",
      "MagneticFieldStrength": 3.0,
      "Manufacturer": "SIEMENS",
      "ManufacturerModelName": "Skyra",
      "Modality": "MR",
      "NumberOfAverages": 1.0,
      "NumberOfPhaseEncodingSteps": 64,
      "PercentPhaseFieldOfView": 100.0,
      "PercentSampling": 100.0,
      "PerformedProcedureStepStartTime": "124122.220000",
      "PhotometricInterpretation": "MONOCHROME2",
      "PixelBandwidth": 1815.0,
      "PixelRepresentation": 0,
      "PixelSpacing": [3.0, 3.0],
      "ProtocolName": "EPI_DGIST_3",
      "RepetitionTime": 2000.0,
      "Rows": 384,
      "SAR": 0.14105329928737,
      "SamplesPerPixel": 1,
      "ScanOptions": "FS",
      "ScanningSequence": "EP",
      "SequenceName": "*epfid2d1_64",
      "SequenceVariant": "SK",
      "SeriesDescription": "EPI_DGIST_3",
      "SeriesNumber": 4,
      "SeriesTime": "131855.565000",
      "SliceLocation": -56.631127734001,
      "SliceThickness": 4.0,
      "SmallestImagePixelValue": 0,
      "SoftwareVersions": "syngo MR E11",
      "SpacingBetweenSlices": 4.8000000169705,
      "SpecificCharacterSet": "ISO_IR 100",
      "StudyID": "1",
      "StudyTime": "124122.151000",
      "TransmitCoilName": "Body",
      "VariableFlipAngleFlag": "N",
      "WindowCenterWidthExplanation": "Algo1",
      "dBdt": 0.0},
    "slices": {}
  },
  "time": {
    "samples": {
      "AcquisitionNumber": [1, 2, 3, 4, 5, 6, 7, 8, 9, 10, 11, 12, 13, 14, 15, 16, 17, 18, 19, 20, 21, 22, 23, 24, 25, 26, 27, 28, 29, 30, 31, 32, 33, 34, 35, 36, 37, 38, 39, 40, 41, 42, 43, 44, 45, 46, 47, 48, 49, 50, 51, 52, 53, 54, 55, 56, 57, 58, 59, 60, 61, 62, 63, 64, 65, 66, 67, 68, 69, 70, 71, 72, 73, 74, 75, 76, 77, 78, 79, 80, 81, 82, 83, 84, 85, 86, 87, 88, 89, 90, 91, 92, 93, 94, 95, 96, 97, 98, 99, 100, 101, 102, 103, 104, 105, 106, 107, 108, 109, 110, 111, 112, 113, 114, 115, 116, 117, 118, 119, 120, 121, 122, 123, 124, 125, 126, 127, 128, 129, 130, 131, 132, 133, 134, 135, 136, 137, 138, 139, 140, 141, 142, 143, 144, 145, 146, 147, 148, 149, 150, 151, 152, 153, 154, 155, 156, 157, 158, 159, 160, 161, 162, 163, 164, 165, 166, 167, 168, 169, 170, 171, 172, 173, 174, 175, 176, 177, 178, 179, 180, 181, 182, 183, 184, 185, 186, 187, 188, 189, 190, 191, 192, 193, 194, 195, 196, 197, 198, 199, 200, 201, 202, 203, 204, 205, 206, 207, 208, 209, 210, 211, 212, 213, 214, 215, 216, 217, 218, 219, 220, 221, 222, 223, 224, 225, 226, 227, 228, 229, 230, 231, 232, 233, 234, 235, 236, 237, 238, 239, 240, 241, 242, 243, 244, 245, 246, 247, 248, 249, 250, 251, 252, 253, 254, 255, 256, 257, 258, 259, 260, 261, 262, 263, 264, 265, 266, 267, 268, 269, 270, 271, 272, 273, 274, 275, 276, 277, 278, 279, 280, 281, 282, 283, 284, 285, 286, 287, 288, 289, 290, 291, 292, 293, 294, 295, 296, 297, 298, 299, 300, 301, 302, 303, 304, 305, 306, 307, 308, 309, 310, 311, 312, 313, 314, 315, 316, 317, 318, 319, 320, 321, 322, 323, 324, 325, 326, 327, 328, 329, 330, 331, 332, 333, 334, 335, 336, 337, 338, 339, 340, 341, 342, 343, 344, 345, 346, 347, 348, 349, 350, 351, 352, 353, 354, 355, 356, 357, 358, 359, 360, 361, 362, 363, 364],
      "AcquisitionTime": ["131805.710000", "131807.710000", "131809.710000", "131811.710000", "131813.710000", "131815.710000", "131817.710000", "131819.710000", "131821.710000", "131823.710000", "131825.710000", "131827.710000", "131829.710000", "131831.710000", "131833.710000", "131835.710000", "131837.710000", "131839.710000", "131841.710000", "131843.710000", "131845.710000", "131847.710000", "131849.710000", "131851.710000", "131853.710000", "131855.710000", "131857.710000", "131859.710000", "131901.710000", "131903.710000", "131905.710000", "131907.710000", "131909.710000", "131911.710000", "131913.710000", "131915.710000", "131917.710000", "131919.710000", "131921.710000", "131923.710000", "131925.710000", "131927.710000", "131929.710000", "131931.710000", "131933.710000", "131935.710000", "131937.710000", "131939.710000", "131941.710000", "131943.710000", "131945.710000", "131947.710000", "131949.710000", "131951.710000", "131953.710000", "131955.710000", "131957.710000", "131959.710000", "132001.710000", "132003.710000", "132005.710000", "132007.710000", "132009.710000", "132011.710000", "132013.710000", "132015.710000", "132017.710000", "132019.710000", "132021.710000", "132023.710000", "132025.710000", "132027.710000", "132029.710000", "132031.710000", "132033.710000", "132035.710000", "132037.710000", "132039.710000", "132041.710000", "132043.710000", "132045.710000", "132047.710000", "132049.710000", "132051.710000", "132053.710000", "132055.710000", "132057.710000", "132059.710000", "132101.710000", "132103.710000", "132105.710000", "132107.710000", "132109.710000", "132111.710000", "132113.710000", "132115.710000", "132117.710000", "132119.710000", "132121.710000", "132123.710000", "132125.710000", "132127.710000", "132129.710000", "132131.710000", "132133.710000", "132135.710000", "132137.710000", "132139.710000", "132141.710000", "132143.710000", "132145.710000", "132147.710000", "132149.710000", "132151.710000", "132153.710000", "132155.710000", "132157.710000", "132159.710000", "132201.710000", "132203.710000", "132205.710000", "132207.710000", "132209.710000", "132211.710000", "132213.710000", "132215.710000", "132217.710000", "132219.710000", "132221.710000", "132223.710000", "132225.710000", "132227.710000", "132229.710000", "132231.710000", "132233.710000", "132235.710000", "132237.710000", "132239.710000", "132241.710000", "132243.710000", "132245.710000", "132247.710000", "132249.710000", "132251.710000", "132253.710000", "132255.710000", "132257.710000", "132259.710000", "132301.710000", "132303.710000", "132305.710000", "132307.710000", "132309.710000", "132311.710000", "132313.710000", "132315.710000", "132317.710000", "132319.710000", "132321.710000", "132323.710000", "132325.710000", "132327.710000", "132329.710000", "132331.710000", "132333.710000", "132335.710000", "132337.710000", "132339.710000", "132341.710000", "132343.710000", "132345.710000", "132347.710000", "132349.710000", "132351.710000", "132353.710000", "132355.710000", "132357.710000", "132359.710000", "132401.710000", "132403.710000", "132405.710000", "132407.710000", "132409.710000", "132411.710000", "132413.710000", "132415.710000", "132417.710000", "132419.710000", "132421.710000", "132423.710000", "132425.710000", "132427.710000", "132429.710000", "132431.710000", "132433.710000", "132435.710000", "132437.710000", "132439.710000", "132441.710000", "132443.710000", "132445.710000", "132447.710000", "132449.710000", "132451.710000", "132453.710000", "132455.710000", "132457.710000", "132459.710000", "132501.710000", "132503.710000", "132505.710000", "132507.710000", "132509.710000", "132511.710000", "132513.710000", "132515.710000", "132517.710000", "132519.710000", "132521.710000", "132523.710000", "132525.710000", "132527.710000", "132529.710000", "132531.710000", "132533.710000", "132535.710000", "132537.710000", "132539.710000", "132541.710000", "132543.710000", "132545.710000", "132547.710000", "132549.710000", "132551.710000", "132553.710000", "132555.710000", "132557.710000", "132559.710000", "132601.710000", "132603.710000", "132605.710000", "132607.710000", "132609.710000", "132611.710000", "132613.710000", "132615.710000", "132617.710000", "132619.710000", "132621.710000", "132623.710000", "132625.710000", "132627.710000", "132629.710000", "132631.710000", "132633.710000", "132635.710000", "132637.710000", "132639.710000", "132641.710000", "132643.710000", "132645.710000", "132647.710000", "132649.710000", "132651.710000", "132653.710000", "132655.710000", "132657.710000", "132659.710000", "132701.710000", "132703.710000", "132705.710000", "132707.710000", "132709.710000", "132711.710000", "132713.710000", "132715.710000", "132717.710000", "132719.710000", "132721.710000", "132723.710000", "132725.710000", "132727.710000", "132729.710000", "132731.710000", "132733.710000", "132735.710000", "132737.710000", "132739.710000", "132741.710000", "132743.710000", "132745.710000", "132747.710000", "132749.710000", "132751.710000", "132753.710000", "132755.710000", "132757.710000", "132759.710000", "132801.710000", "132803.710000", "132805.710000", "132807.710000", "132809.710000", "132811.710000", "132813.710000", "132815.710000", "132817.710000", "132819.710000", "132821.710000", "132823.710000", "132825.710000", "132827.710000", "132829.710000", "132831.710000", "132833.710000", "132835.710000", "132837.710000", "132839.710000", "132841.710000", "132843.710000", "132845.710000", "132847.710000", "132849.710000", "132851.710000", "132853.710000", "132855.710000", "132857.710000", "132859.710000", "132901.710000", "132903.710000", "132905.710000", "132907.710000", "132909.710000", "132911.710000", "132913.710000", "132915.710000", "132917.710000", "132919.710000", "132921.710000", "132923.710000", "132925.710000", "132927.710000", "132929.710000", "132931.710000", "132933.710000", "132935.710000", "132937.710000", "132939.710000", "132941.710000", "132943.710000", "132945.710000", "132947.710000", "132949.710000", "132951.710000", "132953.710000", "132955.710000", "132957.710000", "132959.710000", "133001.710000", "133003.710000", "133005.710000", "133007.710000", "133009.710000", "133011.710000"],
      "ContentTime": ["131855.568000", "131855.572000", "131855.574000", "131855.577000", "131855.588000", "131855.591000", "131855.593000", "131855.601000", "131855.603000", "131855.606000", "131855.608000", "131855.618000", "131855.620000", "131855.622000", "131855.625000", "131855.627000", "131855.630000", "131855.632000", "131855.635000", "131855.637000", "131855.640000", "131855.642000", "131855.645000", "131855.647000", "131935.563000", "131935.566000", "131935.569000", "131935.571000", "131935.574000", "131935.576000", "131935.579000", "131935.581000", "131935.583000", "131935.586000", "131935.588000", "131935.591000", "131935.593000", "131935.596000", "131935.598000", "131935.601000", "131935.603000", "131935.610000", "131935.612000", "131935.615000", "132015.563000", "132015.566000", "132015.569000", "132015.571000", "132015.574000", "132015.576000", "132015.578000", "132015.581000", "132015.583000", "132015.586000", "132015.588000", "132015.591000", "132015.593000", "132015.596000", "132015.598000", "132015.601000", "132015.612000", "132015.614000", "132015.617000", "132015.619000", "132055.562000", "132055.565000", "132055.568000", "132055.570000", "132055.572000", "132055.575000", "132055.577000", "132055.580000", "132055.582000", "132055.585000", "132055.587000", "132055.590000", "132055.592000", "132055.595000", "132055.597000", "132055.599000", "132055.602000", "132055.604000", "132055.607000", "132055.609000", "132135.563000", "132135.566000", "132135.569000", "132135.571000", "132135.574000", "132135.576000", "132135.579000", "132135.581000", "132135.583000", "132135.586000", "132135.588000", "132135.591000", "132135.593000", "132135.596000", "132135.598000", "132135.601000", "132135.603000", "132135.606000", "132135.608000", "132135.611000", "132215.564000", "132215.566000", "132215.569000", "132215.571000", "132215.574000", "132215.576000", "132215.579000", "132215.581000", "132215.584000", "132215.586000", "132215.589000", "132215.591000", "132215.593000", "132215.596000", "132215.598000", "132215.601000", "132215.603000", "132215.606000", "132215.608000", "132215.611000", "132255.562000", "132255.565000", "132255.568000", "132255.570000", "132255.573000", "132255.575000", "132255.578000", "132255.580000", "132255.583000", "132255.585000", "132255.588000", "132255.606000", "132255.609000", "132255.611000", "132255.614000", "132255.616000", "132255.618000", "132255.621000", "132255.623000", "132255.626000", "132335.563000", "132335.566000", "132335.569000", "132335.571000", "132335.574000", "132335.576000", "132335.579000", "132335.581000", "132335.584000", "132335.586000", "132335.589000", "132335.591000", "132335.594000", "132335.596000", "132335.598000", "132335.601000", "132335.603000", "132335.606000", "132335.608000", "132335.611000", "132415.563000", "132415.566000", "132415.569000", "132415.571000", "132415.574000", "132415.576000", "132415.579000", "132415.581000", "132415.584000", "132415.586000", "132415.589000", "132415.591000", "132415.594000", "132415.596000", "132415.599000", "132415.601000", "132415.604000", "132415.606000", "132415.608000", "132415.611000", "132455.563000", "132455.566000", "132455.569000", "132455.571000", "132455.574000", "132455.576000", "132455.579000", "132455.581000", "132455.584000", "132455.586000", "132455.589000", "132455.591000", "132455.594000", "132455.596000", "132455.599000", "132455.601000", "132455.604000", "132455.606000", "132455.609000", "132455.611000", "132535.562000", "132535.565000", "132535.568000", "132535.570000", "132535.573000", "132535.575000", "132535.578000", "132535.580000", "132535.583000", "132535.585000", "132535.588000", "132535.590000", "132535.593000", "132535.595000", "132535.597000", "132535.600000", "132535.602000", "132535.605000", "132535.607000", "132535.610000", "132615.563000", "132615.566000", "132615.569000", "132615.571000", "132615.574000", "132615.576000", "132615.579000", "132615.581000", "132615.584000", "132615.586000", "132615.589000", "132615.591000", "132615.594000", "132615.596000", "132615.599000", "132615.601000", "132615.604000", "132615.606000", "132615.609000", "132615.611000", "132655.563000", "132655.566000", "132655.569000", "132655.571000", "132655.574000", "132655.576000", "132655.579000", "132655.581000", "132655.584000", "132655.586000", "132655.588000", "132655.591000", "132655.593000", "132655.596000", "132655.598000", "132655.601000", "132655.603000", "132655.606000", "132655.608000", "132655.611000", "132735.562000", "132735.565000", "132735.568000", "132735.570000", "132735.573000", "132735.575000", "132735.578000", "132735.580000", "132735.583000", "132735.585000", "132735.588000", "132735.590000", "132735.593000", "132735.595000", "132735.597000", "132735.600000", "132735.602000", "132735.605000", "132735.607000", "132735.610000", "132815.563000", "132815.566000", "132815.569000", "132815.572000", "132815.574000", "132815.576000", "132815.579000", "132815.581000", "132815.584000", "132815.587000", "132815.589000", "132815.592000", "132815.594000", "132815.597000", "132815.599000", "132815.601000", "132815.604000", "132815.606000", "132815.609000", "132815.611000", "132855.563000", "132855.566000", "132855.569000", "132855.571000", "132855.574000", "132855.576000", "132855.579000", "132855.581000", "132855.584000", "132855.586000", "132855.589000", "132855.591000", "132855.594000", "132855.596000", "132855.599000", "132855.601000", "132855.603000", "132855.606000", "132855.608000", "132855.611000", "132935.562000", "132935.565000", "132935.568000", "132935.570000", "132935.573000", "132935.575000", "132935.578000", "132935.580000", "132935.583000", "132935.585000", "132935.587000", "132935.590000", "132935.592000", "132935.595000", "132935.597000", "132935.600000", "132935.602000", "132935.605000", "132935.607000", "132935.610000", "133013.716000", "133013.719000", "133013.730000", "133013.732000", "133013.735000", "133013.737000", "133013.740000", "133013.742000", "133013.745000", "133013.750000", "133013.755000", "133013.760000", "133013.764000", "133013.769000", "133013.773000", "133013.777000", "133013.780000", "133013.783000", "133013.786000", "133013.789000"],
      "InstanceCreationTime": ["131855.568000", "131855.572000", "131855.574000", "131855.577000", "131855.588000", "131855.591000", "131855.593000", "131855.601000", "131855.603000", "131855.606000", "131855.608000", "131855.618000", "131855.620000", "131855.622000", "131855.625000", "131855.627000", "131855.630000", "131855.632000", "131855.635000", "131855.637000", "131855.640000", "131855.642000", "131855.645000", "131855.647000", "131935.563000", "131935.566000", "131935.569000", "131935.571000", "131935.574000", "131935.576000", "131935.579000", "131935.581000", "131935.583000", "131935.586000", "131935.588000", "131935.591000", "131935.593000", "131935.596000", "131935.598000", "131935.601000", "131935.603000", "131935.610000", "131935.612000", "131935.615000", "132015.563000", "132015.566000", "132015.569000", "132015.571000", "132015.574000", "132015.576000", "132015.578000", "132015.581000", "132015.583000", "132015.586000", "132015.588000", "132015.591000", "132015.593000", "132015.596000", "132015.598000", "132015.601000", "132015.612000", "132015.614000", "132015.617000", "132015.619000", "132055.562000", "132055.565000", "132055.568000", "132055.570000", "132055.572000", "132055.575000", "132055.577000", "132055.580000", "132055.582000", "132055.585000", "132055.587000", "132055.590000", "132055.592000", "132055.595000", "132055.597000", "132055.599000", "132055.602000", "132055.604000", "132055.607000", "132055.609000", "132135.563000", "132135.566000", "132135.569000", "132135.571000", "132135.574000", "132135.576000", "132135.579000", "132135.581000", "132135.583000", "132135.586000", "132135.588000", "132135.591000", "132135.593000", "132135.596000", "132135.598000", "132135.601000", "132135.603000", "132135.606000", "132135.608000", "132135.611000", "132215.564000", "132215.566000", "132215.569000", "132215.571000", "132215.574000", "132215.576000", "132215.579000", "132215.581000", "132215.584000", "132215.586000", "132215.589000", "132215.591000", "132215.593000", "132215.596000", "132215.598000", "132215.601000", "132215.603000", "132215.606000", "132215.608000", "132215.611000", "132255.562000", "132255.565000", "132255.568000", "132255.570000", "132255.573000", "132255.575000", "132255.578000", "132255.580000", "132255.583000", "132255.585000", "132255.588000", "132255.606000", "132255.609000", "132255.611000", "132255.614000", "132255.616000", "132255.618000", "132255.621000", "132255.623000", "132255.626000", "132335.563000", "132335.566000", "132335.569000", "132335.571000", "132335.574000", "132335.576000", "132335.579000", "132335.581000", "132335.584000", "132335.586000", "132335.589000", "132335.591000", "132335.594000", "132335.596000", "132335.598000", "132335.601000", "132335.603000", "132335.606000", "132335.608000", "132335.611000", "132415.563000", "132415.566000", "132415.569000", "132415.571000", "132415.574000", "132415.576000", "132415.579000", "132415.581000", "132415.584000", "132415.586000", "132415.589000", "132415.591000", "132415.594000", "132415.596000", "132415.599000", "132415.601000", "132415.604000", "132415.606000", "132415.608000", "132415.611000", "132455.563000", "132455.566000", "132455.569000", "132455.571000", "132455.574000", "132455.576000", "132455.579000", "132455.581000", "132455.584000", "132455.586000", "132455.589000", "132455.591000", "132455.594000", "132455.596000", "132455.599000", "132455.601000", "132455.604000", "132455.606000", "132455.609000", "132455.611000", "132535.562000", "132535.565000", "132535.568000", "132535.570000", "132535.573000", "132535.575000", "132535.578000", "132535.580000", "132535.583000", "132535.585000", "132535.588000", "132535.590000", "132535.593000", "132535.595000", "132535.597000", "132535.600000", "132535.602000", "132535.605000", "132535.607000", "132535.610000", "132615.563000", "132615.566000", "132615.569000", "132615.571000", "132615.574000", "132615.576000", "132615.579000", "132615.581000", "132615.584000", "132615.586000", "132615.589000", "132615.591000", "132615.594000", "132615.596000", "132615.599000", "132615.601000", "132615.604000", "132615.606000", "132615.609000", "132615.611000", "132655.563000", "132655.566000", "132655.569000", "132655.571000", "132655.574000", "132655.576000", "132655.579000", "132655.581000", "132655.584000", "132655.586000", "132655.588000", "132655.591000", "132655.593000", "132655.596000", "132655.598000", "132655.601000", "132655.603000", "132655.606000", "132655.608000", "132655.611000", "132735.562000", "132735.565000", "132735.568000", "132735.570000", "132735.573000", "132735.575000", "132735.578000", "132735.580000", "132735.583000", "132735.585000", "132735.588000", "132735.590000", "132735.593000", "132735.595000", "132735.597000", "132735.600000", "132735.602000", "132735.605000", "132735.607000", "132735.610000", "132815.563000", "132815.566000", "132815.569000", "132815.572000", "132815.574000", "132815.576000", "132815.579000", "132815.581000", "132815.584000", "132815.587000", "132815.589000", "132815.592000", "132815.594000", "132815.597000", "132815.599000", "132815.601000", "132815.604000", "132815.606000", "132815.609000", "132815.611000", "132855.563000", "132855.566000", "132855.569000", "132855.571000", "132855.574000", "132855.576000", "132855.579000", "132855.581000", "132855.584000", "132855.586000", "132855.589000", "132855.591000", "132855.594000", "132855.596000", "132855.599000", "132855.601000", "132855.603000", "132855.606000", "132855.608000", "132855.611000", "132935.562000", "132935.565000", "132935.568000", "132935.570000", "132935.573000", "132935.575000", "132935.578000", "132935.580000", "132935.583000", "132935.585000", "132935.587000", "132935.590000", "132935.592000", "132935.595000", "132935.597000", "132935.600000", "132935.602000", "132935.605000", "132935.607000", "132935.610000", "133013.716000", "133013.719000", "133013.730000", "133013.732000", "133013.735000", "133013.737000", "133013.740000", "133013.742000", "133013.745000", "133013.750000", "133013.755000", "133013.760000", "133013.764000", "133013.769000", "133013.773000", "133013.777000", "133013.780000", "133013.783000", "133013.786000", "133013.789000"],
      "InstanceNumber": [1, 2, 3, 4, 5, 6, 7, 8, 9, 10, 11, 12, 13, 14, 15, 16, 17, 18, 19, 20, 21, 22, 23, 24, 25, 26, 27, 28, 29, 30, 31, 32, 33, 34, 35, 36, 37, 38, 39, 40, 41, 42, 43, 44, 45, 46, 47, 48, 49, 50, 51, 52, 53, 54, 55, 56, 57, 58, 59, 60, 61, 62, 63, 64, 65, 66, 67, 68, 69, 70, 71, 72, 73, 74, 75, 76, 77, 78, 79, 80, 81, 82, 83, 84, 85, 86, 87, 88, 89, 90, 91, 92, 93, 94, 95, 96, 97, 98, 99, 100, 101, 102, 103, 104, 105, 106, 107, 108, 109, 110, 111, 112, 113, 114, 115, 116, 117, 118, 119, 120, 121, 122, 123, 124, 125, 126, 127, 128, 129, 130, 131, 132, 133, 134, 135, 136, 137, 138, 139, 140, 141, 142, 143, 144, 145, 146, 147, 148, 149, 150, 151, 152, 153, 154, 155, 156, 157, 158, 159, 160, 161, 162, 163, 164, 165, 166, 167, 168, 169, 170, 171, 172, 173, 174, 175, 176, 177, 178, 179, 180, 181, 182, 183, 184, 185, 186, 187, 188, 189, 190, 191, 192, 193, 194, 195, 196, 197, 198, 199, 200, 201, 202, 203, 204, 205, 206, 207, 208, 209, 210, 211, 212, 213, 214, 215, 216, 217, 218, 219, 220, 221, 222, 223, 224, 225, 226, 227, 228, 229, 230, 231, 232, 233, 234, 235, 236, 237, 238, 239, 240, 241, 242, 243, 244, 245, 246, 247, 248, 249, 250, 251, 252, 253, 254, 255, 256, 257, 258, 259, 260, 261, 262, 263, 264, 265, 266, 267, 268, 269, 270, 271, 272, 273, 274, 275, 276, 277, 278, 279, 280, 281, 282, 283, 284, 285, 286, 287, 288, 289, 290, 291, 292, 293, 294, 295, 296, 297, 298, 299, 300, 301, 302, 303, 304, 305, 306, 307, 308, 309, 310, 311, 312, 313, 314, 315, 316, 317, 318, 319, 320, 321, 322, 323, 324, 325, 326, 327, 328, 329, 330, 331, 332, 333, 334, 335, 336, 337, 338, 339, 340, 341, 342, 343, 344, 345, 346, 347, 348, 349, 350, 351, 352, 353, 354, 355, 356, 357, 358, 359, 360, 361, 362, 363, 364],
      "LargestImagePixelValue": [2934, 2795, 2812, 2783, 2750, 2772, 2766, 2779, 2777, 2774, 2780, 2765, 2796, 2791, 2781, 2783, 2768, 2766, 2770, 2776, 2778, 2783, 2813, 2755, 2770, 2771, 2778, 2776, 2771, 2770, 2771, 2784, 2779, 2777, 2767, 2788, 2784, 2772, 2788, 2775, 2785, 2776, 2775, 2769, 2763, 2760, 2788, 2793, 2797, 2785, 2791, 2780, 2783, 2787, 2778, 2774, 2782, 2790, 2785, 2787, 2787, 2795, 2792, 2781, 2772, 2773, 2776, 2781, 2786, 2782, 2791, 2787, 2793, 2790, 2784, 2790, 2783, 2787, 2791, 2785, 2790, 2782, 2775, 2786, 2782, 2796, 2788, 2792, 2782, 2777, 2782, 2780, 2776, 2778, 2783, 2778, 2793, 2799, 2784, 2787, 2788, 2790, 2784, 2779, 2787, 2785, 2780, 2779, 2791, 2795, 2795, 2783, 2787, 2790, 2784, 2792, 2780, 2781, 2788, 2780, 2786, 2789, 2780, 2778, 2755, 2773, 2779, 2784, 2776, 2778, 2777, 2770, 2771, 2778, 2771, 2775, 2769, 2766, 2777, 2781, 2781, 2779, 2775, 2780, 2772, 2769, 2778, 2775, 2780, 2779, 2773, 2780, 2774, 2758, 2754, 2768, 2769, 2769, 2764, 2764, 2766, 2764, 2775, 2769, 2774, 2762, 2757, 2759, 2757, 2761, 2760, 2753, 2754, 2756, 2758, 2756, 2752, 2756, 2759, 2762, 2772, 2767, 2760, 2757, 2750, 2764, 2770, 2771, 2762, 2759, 2760, 2756, 2753, 2757, 2759, 2763, 2762, 2762, 2769, 2758, 2769, 2764, 2761, 2769, 2766, 2768, 2763, 2775, 2760, 2768, 2775, 2775, 2761, 2768, 2767, 2762, 2774, 2774, 2770, 2767, 2773, 2779, 2775, 2773, 2773, 2777, 2787, 2784, 2775, 2772, 2784, 2781, 2772, 2774, 2771, 2769, 2776, 2773, 2769, 2776, 2776, 2772, 2770, 2768, 2766, 2769, 2773, 2774, 2779, 2763, 2769, 2773, 2766, 2773, 2769, 2772, 2768, 2772, 2775, 2773, 2774, 2777, 2777, 2773, 2765, 2772, 2780, 2776, 2775, 2769, 2810, 2728, 2577, 2674, 2652, 2680, 2692, 2687, 2689, 2719, 2753, 2757, 2775, 2788, 2783, 2774, 2768, 2761, 2748, 2734, 2736, 2732, 2747, 2760, 2773, 2774, 2767, 2764, 2752, 2743, 2750, 2675, 2693, 2676, 2707, 2715, 2727, 2733, 2735, 2733, 2738, 2750, 2749, 2753, 2753, 2748, 2753, 2762, 2760, 2745, 2763, 2745, 2754, 2765, 2762, 2763, 2759, 2757, 2766, 2763, 2784, 2692, 2656, 2724, 2750, 2751, 2749, 2748, 2766, 2768, 2767, 2764, 2768, 2761, 2767, 2768, 2775, 2771, 2771, 2771, 2768, 2770, 2764, 2774, 2770, 2767, 2753, 2754, 2766, 2765, 2762, 2770, 2761, 2759],
