{
  "AcquisitionMatrixPE": 64,
  "AcquisitionNumber": 1,
  "AcquisitionTime": "14:03:2.532500",
  "BandwidthPerPixelPhaseEncode": 25.202,
  "BaseResolution": 64,
  "BodyPartExamined": "BRAIN",
  "ConsistencyInfo": "N4_VE11C_LATEST_20160120",
  "ConversionSoftware": "dcm2niix",
  "ConversionSoftwareVersion": "v1.0.20201102",
  "DerivedVendorReportedEchoSpacing": 0.00061999,
  "DeviceSerialNumber": "45758",
  "DwellTime": 4.3e-06,
  "EchoTime": 0.03,
  "EchoTrainLength": 64,
  "EffectiveEchoSpacing": 0.00061999,
  "FlipAngle": 90,
  "ImageOrientationPatientDICOM": [0.999241, 0.0111579, 0.0373235, -0.00872024, 0.997857, -0.0648484],
  "ImageType": [
    "ORIGINAL",
    "PRIMARY",
    "M",
    "ND",
    "MOSAIC"
],
  "ImagingFrequency": 123.2,
  "InPlanePhaseEncodingDirectionDICOM": "ROW",
  "InstitutionAddress": "Street StreetNo,City /652E4B/,District,KR,ZIP",
  "InstitutionName": "DGMIF",
  "InstitutionalDepartmentName": "Department",
  "MRAcquisitionType": "2D",
  "MagneticFieldStrength": 3,
  "Manufacturer": "Siemens",
  "ManufacturersModelName": "Skyra",
  "Modality": "MR",
  "PartialFourier": 1,
  "PatientPosition": "HFS",
  "PercentPhaseFOV": 100,
  "PercentSampling": 100,
  "PhaseEncodingDirection": "i",
  "PhaseEncodingSteps": 64,
  "PhaseResolution": 1,
  "PixelBandwidth": 1815,
  "ProcedureStepDescription": "DGMIF^DGIST",
  "ProtocolName": "EPI_DGIST_1",
  "PulseSequenceDetails": "%SiemensSeq%\\ep2d_bold",
  "ReceiveCoilActiveElements": "HC1-6",
  "ReceiveCoilName": "HeadNeck_64",
  "ReconMatrixPE": 64,
  "RepetitionTime": 2,
  "SAR": 0.132041,
  "ScanOptions": "FS",
  "ScanningSequence": "EP",
  "SequenceName": "*epfid2d1_64",
  "SequenceVariant": "SK",
  "SeriesDescription": "EPI_DGIST_1",
  "SeriesNumber": 2,
  "ShimSetting": [-9725, -13758, -8509, 271, -299, -751, -143, -209],
  "SliceThickness": 4,
  "SliceTiming": [0.99, 0, 1.055, 0.0675, 1.1225, 0.1325, 1.1875, 0.1975, 1.255, 0.265, 1.32, 0.33, 1.385, 0.3975, 1.4525, 0.4625, 1.5175, 0.5275, 1.585, 0.595, 1.65, 0.66, 1.715, 0.7275, 1.7825, 0.7925, 1.8475, 0.8575, 1.915, 0.925],
  "SoftwareVersions": "syngo MR E11",
  "SpacingBetweenSlices": 4.8,
  "StationName": "AWP45758",
  "TaskName": "asrt",
  "TotalReadoutTime": 0.0390594,
  "TxRefAmp": 309.938,
  "dcmmeta_affine": [
    [-2.997722864151001, -0.02616073004901409, 0.18224214017391205, 92.87248992919922],
    [-0.033473722636699677, 2.9935710430145264, -0.30947399139404297, -112.81219482421875],
    [0.11197056621313095, 0.19454532861709595, 4.786545276641846, -79.27487182617188],
    [0.0, 0.0, 0.0, 1.0]
],
  "dcmmeta_reorient_transform": [
    [0.0, -1.0, 0.0, 63.0],
    [1.0, 0.0, 0.0, 0.0],
    [0.0, 0.0, 1.0, 0.0],
    [0.0, 0.0, 0.0, 1.0]
],
  "dcmmeta_shape": [64, 64, 30, 514],
  "dcmmeta_slice_dim": 2,
  "dcmmeta_version": 0.6,
  "global": {
    "const": {
      "AcquisitionMatrix": [0, 64, 64, 0],
      "AngioFlag": "N",
      "BitsAllocated": 16,
      "BitsStored": 12,
      "BodyPartExamined": "BRAIN",
      "Columns": 384,
      "EchoNumbers": 1,
      "EchoTime": 30.0,
      "EchoTrainLength": 64,
      "FlipAngle": 90.0,
      "HighBit": 11,
      "ImageOrientationPatient": [0.99924093980465, 0.0111579078332, 0.03732352222267, -0.0087202435904, 0.99785702225237, -0.0648484424898],
      "ImagePositionPatient": [-566.67429492267, -560.10994859098, -53.806557486177],
      "ImageType": [
        "ORIGINAL",
        "PRIMARY",
        "M",
        "ND",
        "MOSAIC"
],
      "ImagedNucleus": "1H",
      "ImagingFrequency": 123.200305,
      "InPlanePhaseEncodingDirection": "ROW",
      "MRAcquisitionType": "2D",
      "MagneticFieldStrength": 3.0,
      "Manufacturer": "SIEMENS",
      "ManufacturerModelName": "Skyra",
      "Modality": "MR",
      "NumberOfAverages": 1.0,
      "NumberOfPhaseEncodingSteps": 64,
      "PercentPhaseFieldOfView": 100.0,
      "PercentSampling": 100.0,
      "PerformedProcedureStepStartTime": "135908.038000",
      "PhotometricInterpretation": "MONOCHROME2",
      "PixelBandwidth": 1815.0,
      "PixelRepresentation": 0,
      "PixelSpacing": [3.0, 3.0],
      "ProtocolName": "EPI_DGIST_1",
      "RepetitionTime": 2000.0,
      "Rows": 384,
      "SAR": 0.13204126549177,
      "SamplesPerPixel": 1,
      "ScanOptions": "FS",
      "ScanningSequence": "EP",
      "SequenceName": "*epfid2d1_64",
      "SequenceVariant": "SK",
      "SeriesDescription": "EPI_DGIST_1",
      "SeriesNumber": 2,
      "SeriesTime": "140348.923000",
      "SliceLocation": -68.253133361827,
      "SliceThickness": 4.0,
      "SmallestImagePixelValue": 0,
      "SoftwareVersions": "syngo MR E11",
      "SpacingBetweenSlices": 4.8000000001932,
      "SpecificCharacterSet": "ISO_IR 100",
      "StudyID": "1",
      "StudyTime": "135907.994000",
      "TransmitCoilName": "Body",
      "VariableFlipAngleFlag": "N",
      "WindowCenterWidthExplanation": "Algo1",
      "dBdt": 0.0},
    "slices": {}
  },
  "time": {
    "samples": {
      "AcquisitionNumber": [1, 2, 3, 4, 5, 6, 7, 8, 9, 10, 11, 12, 13, 14, 15, 16, 17, 18, 19, 20, 21, 22, 23, 24, 25, 26, 27, 28, 29, 30, 31, 32, 33, 34, 35, 36, 37, 38, 39, 40, 41, 42, 43, 44, 45, 46, 47, 48, 49, 50, 51, 52, 53, 54, 55, 56, 57, 58, 59, 60, 61, 62, 63, 64, 65, 66, 67, 68, 69, 70, 71, 72, 73, 74, 75, 76, 77, 78, 79, 80, 81, 82, 83, 84, 85, 86, 87, 88, 89, 90, 91, 92, 93, 94, 95, 96, 97, 98, 99, 100, 101, 102, 103, 104, 105, 106, 107, 108, 109, 110, 111, 112, 113, 114, 115, 116, 117, 118, 119, 120, 121, 122, 123, 124, 125, 126, 127, 128, 129, 130, 131, 132, 133, 134, 135, 136, 137, 138, 139, 140, 141, 142, 143, 144, 145, 146, 147, 148, 149, 150, 151, 152, 153, 154, 155, 156, 157, 158, 159, 160, 161, 162, 163, 164, 165, 166, 167, 168, 169, 170, 171, 172, 173, 174, 175, 176, 177, 178, 179, 180, 181, 182, 183, 184, 185, 186, 187, 188, 189, 190, 191, 192, 193, 194, 195, 196, 197, 198, 199, 200, 201, 202, 203, 204, 205, 206, 207, 208, 209, 210, 211, 212, 213, 214, 215, 216, 217, 218, 219, 220, 221, 222, 223, 224, 225, 226, 227, 228, 229, 230, 231, 232, 233, 234, 235, 236, 237, 238, 239, 240, 241, 242, 243, 244, 245, 246, 247, 248, 249, 250, 251, 252, 253, 254, 255, 256, 257, 258, 259, 260, 261, 262, 263, 264, 265, 266, 267, 268, 269, 270, 271, 272, 273, 274, 275, 276, 277, 278, 279, 280, 281, 282, 283, 284, 285, 286, 287, 288, 289, 290, 291, 292, 293, 294, 295, 296, 297, 298, 299, 300, 301, 302, 303, 304, 305, 306, 307, 308, 309, 310, 311, 312, 313, 314, 315, 316, 317, 318, 319, 320, 321, 322, 323, 324, 325, 326, 327, 328, 329, 330, 331, 332, 333, 334, 335, 336, 337, 338, 339, 340, 341, 342, 343, 344, 345, 346, 347, 348, 349, 350, 351, 352, 353, 354, 355, 356, 357, 358, 359, 360, 361, 362, 363, 364, 365, 366, 367, 368, 369, 370, 371, 372, 373, 374, 375, 376, 377, 378, 379, 380, 381, 382, 383, 384, 385, 386, 387, 388, 389, 390, 391, 392, 393, 394, 395, 396, 397, 398, 399, 400, 401, 402, 403, 404, 405, 406, 407, 408, 409, 410, 411, 412, 413, 414, 415, 416, 417, 418, 419, 420, 421, 422, 423, 424, 425, 426, 427, 428, 429, 430, 431, 432, 433, 434, 435, 436, 437, 438, 439, 440, 441, 442, 443, 444, 445, 446, 447, 448, 449, 450, 451, 452, 453, 454, 455, 456, 457, 458, 459, 460, 461, 462, 463, 464, 465, 466, 467, 468, 469, 470, 471, 472, 473, 474, 475, 476, 477, 478, 479, 480, 481, 482, 483, 484, 485, 486, 487, 488, 489, 490, 491, 492, 493, 494, 495, 496, 497, 498, 499, 500, 501, 502, 503, 504, 505, 506, 507, 508, 509, 510, 511, 512, 513, 514],
      "AcquisitionTime": ["140302.532500", "140304.532500", "140306.532500", "140308.532500", "140310.532500", "140312.532500", "140314.532500", "140316.532500", "140318.532500", "140320.532500", "140322.532500", "140324.532500", "140326.532500", "140328.532500", "140330.532500", "140332.532500", "140334.532500", "140336.532500", "140338.532500", "140340.532500", "140342.532500", "140344.532500", "140346.532500", "140348.532500", "140350.532500", "140352.532500", "140354.532500", "140356.532500", "140358.532500", "140400.532500", "140402.532500", "140404.532500", "140406.532500", "140408.532500", "140410.532500", "140412.532500", "140414.532500", "140416.532500", "140418.532500", "140420.532500", "140422.532500", "140424.532500", "140426.532500", "140428.532500", "140430.532500", "140432.532500", "140434.532500", "140436.532500", "140438.532500", "140440.532500", "140442.532500", "140444.532500", "140446.532500", "140448.532500", "140450.532500", "140452.532500", "140454.532500", "140456.532500", "140458.532500", "140500.532500", "140502.532500", "140504.532500", "140506.532500", "140508.532500", "140510.532500", "140512.532500", "140514.532500", "140516.532500", "140518.532500", "140520.532500", "140522.532500", "140524.532500", "140526.532500", "140528.532500", "140530.532500", "140532.532500", "140534.532500", "140536.532500", "140538.532500", "140540.532500", "140542.532500", "140544.532500", "140546.532500", "140548.532500", "140550.532500", "140552.532500", "140554.532500", "140556.532500", "140558.532500", "140600.532500", "140602.532500", "140604.532500", "140606.532500", "140608.532500", "140610.532500", "140612.532500", "140614.532500", "140616.532500", "140618.532500", "140620.532500", "140622.532500", "140624.532500", "140626.532500", "140628.532500", "140630.532500", "140632.532500", "140634.532500", "140636.532500", "140638.532500", "140640.532500", "140642.532500", "140644.532500", "140646.532500", "140648.532500", "140650.532500", "140652.532500", "140654.532500", "140656.532500", "140658.532500", "140700.532500", "140702.532500", "140704.532500", "140706.532500", "140708.532500", "140710.532500", "140712.532500", "140714.532500", "140716.532500", "140718.532500", "140720.532500", "140722.532500", "140724.532500", "140726.532500", "140728.532500", "140730.532500", "140732.532500", "140734.532500", "140736.532500", "140738.532500", "140740.532500", "140742.532500", "140744.532500", "140746.532500", "140748.532500", "140750.532500", "140752.532500", "140754.532500", "140756.532500", "140758.532500", "140800.532500", "140802.532500", "140804.532500", "140806.532500", "140808.532500", "140810.532500", "140812.532500", "140814.532500", "140816.532500", "140818.532500", "140820.532500", "140822.532500", "140824.532500", "140826.532500", "140828.532500", "140830.532500", "140832.532500", "140834.532500", "140836.532500", "140838.532500", "140840.532500", "140842.532500", "140844.532500", "140846.532500", "140848.532500", "140850.532500", "140852.532500", "140854.532500", "140856.532500", "140858.532500", "140900.532500", "140902.532500", "140904.532500", "140906.532500", "140908.532500", "140910.532500", "140912.532500", "140914.532500", "140916.532500", "140918.532500", "140920.532500", "140922.532500", "140924.532500", "140926.532500", "140928.532500", "140930.532500", "140932.532500", "140934.532500", "140936.532500", "140938.532500", "140940.532500", "140942.532500", "140944.532500", "140946.532500", "140948.532500", "140950.532500", "140952.532500", "140954.532500", "140956.532500", "140958.532500", "141000.532500", "141002.532500", "141004.532500", "141006.532500", "141008.532500", "141010.532500", "141012.532500", "141014.532500", "141016.532500", "141018.532500", "141020.532500", "141022.532500", "141024.532500", "141026.532500", "141028.532500", "141030.532500", "141032.532500", "141034.532500", "141036.532500", "141038.532500", "141040.532500", "141042.532500", "141044.532500", "141046.532500", "141048.532500", "141050.532500", "141052.532500", "141054.532500", "141056.532500", "141058.532500", "141100.532500", "141102.532500", "141104.532500", "141106.532500", "141108.532500", "141110.532500", "141112.532500", "141114.532500", "141116.532500", "141118.532500", "141120.532500", "141122.532500", "141124.532500", "141126.532500", "141128.532500", "141130.532500", "141132.532500", "141134.532500", "141136.532500", "141138.532500", "141140.532500", "141142.532500", "141144.532500", "141146.532500", "141148.532500", "141150.532500", "141152.532500", "141154.532500", "141156.532500", "141158.532500", "141200.532500", "141202.532500", "141204.532500", "141206.532500", "141208.532500", "141210.532500", "141212.532500", "141214.532500", "141216.532500", "141218.532500", "141220.532500", "141222.532500", "141224.532500", "141226.532500", "141228.532500", "141230.532500", "141232.532500", "141234.532500", "141236.532500", "141238.532500", "141240.532500", "141242.532500", "141244.532500", "141246.532500", "141248.532500", "141250.532500", "141252.532500", "141254.532500", "141256.532500", "141258.532500", "141300.532500", "141302.532500", "141304.532500", "141306.532500", "141308.532500", "141310.532500", "141312.532500", "141314.532500", "141316.532500", "141318.532500", "141320.532500", "141322.532500", "141324.532500", "141326.532500", "141328.532500", "141330.532500", "141332.532500", "141334.532500", "141336.532500", "141338.532500", "141340.532500", "141342.532500", "141344.532500", "141346.532500", "141348.532500", "141350.532500", "141352.532500", "141354.532500", "141356.532500", "141358.532500", "141400.532500", "141402.532500", "141404.532500", "141406.532500", "141408.532500", "141410.532500", "141412.532500", "141414.532500", "141416.532500", "141418.532500", "141420.532500", "141422.532500", "141424.532500", "141426.532500", "141428.532500", "141430.532500", "141432.532500", "141434.532500", "141436.532500", "141438.532500", "141440.532500", "141442.532500", "141444.532500", "141446.532500", "141448.532500", "141450.532500", "141452.532500", "141454.532500", "141456.532500", "141458.532500", "141500.532500", "141502.532500", "141504.532500", "141506.532500", "141508.532500", "141510.532500", "141512.532500", "141514.532500", "141516.532500", "141518.532500", "141520.532500", "141522.532500", "141524.532500", "141526.532500", "141528.532500", "141530.532500", "141532.532500", "141534.532500", "141536.532500", "141538.532500", "141540.532500", "141542.532500", "141544.532500", "141546.532500", "141548.532500", "141550.532500", "141552.532500", "141554.532500", "141556.532500", "141558.532500", "141600.532500", "141602.532500", "141604.532500", "141606.532500", "141608.532500", "141610.532500", "141612.532500", "141614.532500", "141616.532500", "141618.532500", "141620.532500", "141622.532500", "141624.532500", "141626.532500", "141628.532500", "141630.532500", "141632.532500", "141634.532500", "141636.532500", "141638.532500", "141640.532500", "141642.532500", "141644.532500", "141646.532500", "141648.532500", "141650.532500", "141652.532500", "141654.532500", "141656.532500", "141658.532500", "141700.532500", "141702.532500", "141704.532500", "141706.532500", "141708.532500", "141710.532500", "141712.532500", "141714.532500", "141716.532500", "141718.532500", "141720.532500", "141722.532500", "141724.532500", "141726.532500", "141728.532500", "141730.532500", "141732.532500", "141734.532500", "141736.532500", "141738.532500", "141740.532500", "141742.532500", "141744.532500", "141746.532500", "141748.532500", "141750.532500", "141752.532500", "141754.532500", "141756.532500", "141758.532500", "141800.532500", "141802.532500", "141804.532500", "141806.532500", "141808.532500", "141810.532500", "141812.532500", "141814.532500", "141816.532500", "141818.532500", "141820.532500", "141822.532500", "141824.532500", "141826.532500", "141828.532500", "141830.532500", "141832.532500", "141834.532500", "141836.532500", "141838.532500", "141840.532500", "141842.532500", "141844.532500", "141846.532500", "141848.532500", "141850.532500", "141852.532500", "141854.532500", "141856.532500", "141858.532500", "141900.532500", "141902.532500", "141904.532500", "141906.532500", "141908.532500", "141910.532500", "141912.532500", "141914.532500", "141916.532500", "141918.532500", "141920.532500", "141922.532500", "141924.532500", "141926.532500", "141928.532500", "141930.532500", "141932.532500", "141934.532500", "141936.532500", "141938.532500", "141940.532500", "141942.532500", "141944.532500", "141946.532500", "141948.532500", "141950.532500", "141952.532500", "141954.532500", "141956.532500", "141958.532500", "142000.532500", "142002.532500", "142004.532500", "142006.532500", "142008.532500"],
      "ContentTime": ["140348.926000", "140348.930000", "140348.932000", "140348.934000", "140348.947000", "140348.949000", "140348.952000", "140348.958000", "140348.961000", "140348.963000", "140348.972000", "140348.974000", "140348.979000", "140348.981000", "140348.984000", "140348.986000", "140348.989000", "140348.991000", "140348.993000", "140348.996000", "140348.998000", "140349.001000", "140349.004000", "140428.921000", "140428.924000", "140428.927000", "140428.929000", "140428.931000", "140428.934000", "140428.936000", "140428.939000", "140428.941000", "140428.944000", "140428.946000", "140428.949000", "140428.951000", "140428.954000", "140428.956000", "140428.958000", "140428.961000", "140428.963000", "140428.966000", "140428.968000", "140508.921000", "140508.924000", "140508.932000", "140508.934000", "140508.937000", "140508.939000", "140508.942000", "140508.944000", "140508.946000", "140508.949000", "140508.951000", "140508.954000", "140508.956000", "140508.959000", "140508.961000", "140508.964000", "140508.966000", "140508.968000", "140508.971000", "140508.974000", "140548.922000", "140548.924000", "140548.927000", "140548.929000", "140548.932000", "140548.934000", "140548.937000", "140548.939000", "140548.942000", "140548.944000", "140548.946000", "140548.949000", "140548.951000", "140548.954000", "140548.956000", "140548.959000", "140548.961000", "140548.964000", "140548.966000", "140548.975000", "140628.922000", "140628.924000", "140628.927000", "140628.929000", "140628.932000", "140628.934000", "140628.937000", "140628.939000", "140628.941000", "140628.944000", "140628.946000", "140628.949000", "140628.951000", "140628.954000", "140628.956000", "140628.958000", "140628.961000", "140628.963000", "140628.966000", "140628.968000", "140708.922000", "140708.925000", "140708.928000", "140708.930000", "140708.933000", "140708.935000", "140708.938000", "140708.940000", "140708.943000", "140708.945000", "140708.947000", "140708.950000", "140708.952000", "140708.955000", "140708.957000", "140708.960000", "140708.962000", "140708.965000", "140708.967000", "140708.970000", "140748.921000", "140748.924000", "140748.927000", "140748.929000", "140748.932000", "140748.934000", "140748.937000", "140748.939000", "140748.941000", "140748.944000", "140748.946000", "140748.949000", "140748.951000", "140748.954000", "140748.956000", "140748.959000", "140748.961000", "140748.964000", "140748.966000", "140748.969000", "140828.921000", "140828.924000", "140828.927000", "140828.929000", "140828.932000", "140828.934000", "140828.937000", "140828.939000", "140828.942000", "140828.944000", "140828.946000", "140828.949000", "140828.951000", "140828.954000", "140828.956000", "140828.959000", "140828.961000", "140828.964000", "140828.966000", "140828.970000", "140908.921000", "140908.924000", "140908.927000", "140908.929000", "140908.931000", "140908.934000", "140908.936000", "140908.939000", "140908.941000", "140908.944000", "140908.946000", "140908.949000", "140908.951000", "140908.954000", "140908.956000", "140908.959000", "140908.961000", "140908.969000", "140908.972000", "140908.974000", "140948.921000", "140948.924000", "140948.927000", "140948.929000", "140948.932000", "140948.934000", "140948.937000", "140948.939000", "140948.942000", "140948.944000", "140948.946000", "140948.949000", "140948.951000", "140948.954000", "140948.956000", "140948.959000", "140948.961000", "140948.964000", "140948.966000", "140948.969000", "141028.922000", "141028.924000", "141028.927000", "141028.929000", "141028.932000", "141028.934000", "141028.937000", "141028.939000", "141028.942000", "141028.953000", "141028.956000", "141028.958000", "141028.961000", "141028.963000", "141028.973000", "141028.976000", "141028.978000", "141028.981000", "141028.983000", "141028.986000", "141048.921000", "141048.924000", "141048.927000", "141048.929000", "141048.932000", "141048.934000", "141048.937000", "141048.939000", "141048.942000", "141048.944000", "141128.921000", "141128.924000", "141128.927000", "141128.929000", "141128.932000", "141128.934000", "141128.937000", "141128.939000", "141128.942000", "141128.944000", "141128.947000", "141128.949000", "141128.952000", "141128.954000", "141128.956000", "141128.959000", "141128.961000", "141128.964000", "141128.966000", "141128.969000", "141208.921000", "141208.924000", "141208.927000", "141208.929000", "141208.932000", "141208.941000", "141208.943000", "141208.946000", "141208.948000", "141208.951000", "141208.953000", "141208.956000", "141208.958000", "141208.961000", "141208.963000", "141208.965000", "141208.968000", "141208.971000", "141208.974000", "141208.977000", "141248.921000", "141248.924000", "141248.927000", "141248.929000", "141248.932000", "141248.934000", "141248.937000", "141248.939000", "141248.942000", "141248.944000", "141248.946000", "141248.949000", "141248.951000", "141248.954000", "141248.956000", "141248.959000", "141248.961000", "141248.964000", "141248.966000", "141248.969000", "141328.921000", "141328.924000", "141328.927000", "141328.929000", "141328.932000", "141328.934000", "141328.937000", "141328.939000", "141328.942000", "141328.944000", "141328.946000", "141328.949000", "141328.951000", "141328.954000", "141328.956000", "141328.959000", "141328.961000", "141328.964000", "141328.966000", "141328.969000", "141408.922000", "141408.925000", "141408.928000", "141408.930000", "141408.933000", "141408.935000", "141408.938000", "141408.940000", "141408.943000", "141408.945000", "141408.948000", "141408.950000", "141408.952000", "141408.955000", "141408.957000", "141408.960000", "141408.962000", "141408.965000", "141408.967000", "141408.971000", "141448.921000", "141448.924000", "141448.927000", "141448.929000", "141448.932000", "141448.934000", "141448.937000", "141448.939000", "141448.942000", "141448.944000", "141448.947000", "141448.949000", "141448.951000", "141448.954000", "141448.956000", "141448.959000", "141448.961000", "141448.964000", "141448.966000", "141448.969000", "141528.921000", "141528.924000", "141528.927000", "141528.929000", "141528.932000", "141528.934000", "141528.937000", "141528.939000", "141528.941000", "141528.944000", "141528.946000", "141528.949000", "141528.951000", "141528.954000", "141528.956000", "141528.959000", "141528.961000", "141528.963000", "141528.966000", "141528.969000", "141608.922000", "141608.924000", "141608.927000", "141608.929000", "141608.932000", "141608.934000", "141608.937000", "141608.939000", "141608.942000", "141608.944000", "141608.947000", "141608.949000", "141608.952000", "141608.954000", "141608.957000", "141608.959000", "141608.961000", "141608.964000", "141608.966000", "141608.970000", "141648.922000", "141648.924000", "141648.927000", "141648.929000", "141648.932000", "141648.934000", "141648.936000", "141648.939000", "141648.941000", "141648.944000", "141648.946000", "141648.949000", "141648.951000", "141648.954000", "141648.956000", "141648.959000", "141648.961000", "141648.964000", "141648.966000", "141648.969000", "141728.921000", "141728.924000", "141728.927000", "141728.929000", "141728.932000", "141728.934000", "141728.937000", "141728.939000", "141728.942000", "141728.944000", "141728.947000", "141728.949000", "141728.951000", "141728.954000", "141728.956000", "141728.959000", "141728.961000", "141728.964000", "141728.966000", "141728.970000", "141808.921000", "141808.924000", "141808.927000", "141808.929000", "141808.932000", "141808.934000", "141808.937000", "141808.939000", "141808.942000", "141808.944000", "141808.947000", "141808.949000", "141808.952000", "141808.954000", "141808.957000", "141808.959000", "141808.962000", "141808.964000", "141808.966000", "141808.969000", "141848.921000", "141848.924000", "141848.927000", "141848.929000", "141848.932000", "141848.934000", "141848.937000", "141848.939000", "141848.942000", "141848.944000", "141848.946000", "141848.949000", "141848.951000", "141848.954000", "141848.956000", "141848.959000", "141848.961000", "141848.964000", "141848.966000", "141848.969000", "141928.921000", "141928.924000", "141928.927000", "141928.929000", "141928.932000", "141928.934000", "141928.937000", "141928.939000", "141928.942000", "141928.944000", "141928.946000", "141928.949000", "141928.951000", "141928.954000", "141928.956000", "141928.959000", "141928.961000", "141928.964000", "141928.966000", "141928.969000", "142008.921000", "142008.924000", "142008.927000", "142008.929000", "142008.932000", "142008.934000", "142008.937000", "142008.939000", "142008.942000", "142008.944000", "142008.947000", "142008.949000", "142008.951000", "142008.954000", "142008.956000", "142008.959000", "142008.961000", "142008.964000", "142008.966000", "142008.969000", "142009.958000"],
