{
  "AcquisitionMatrixPE": 64,
  "AcquisitionNumber": 1,
  "AcquisitionTime": "14:21:41.400000",
  "BandwidthPerPixelPhaseEncode": 25.202,
  "BaseResolution": 64,
  "BodyPartExamined": "BRAIN",
  "ConsistencyInfo": "N4_VE11C_LATEST_20160120",
  "ConversionSoftware": "dcm2niix",
  "ConversionSoftwareVersion": "v1.0.20201102",
  "DerivedVendorReportedEchoSpacing": 0.00061999,
  "DeviceSerialNumber": "45758",
  "DwellTime": 4.3e-06,
  "EchoTime": 0.03,
  "EchoTrainLength": 64,
  "EffectiveEchoSpacing": 0.00061999,
  "FlipAngle": 90,
  "ImageOrientationPatientDICOM": [0.999241, 0.0111579, 0.0373235, -0.00872024, 0.997857, -0.0648484],
  "ImageType": [
    "ORIGINAL",
    "PRIMARY",
    "M",
    "ND",
    "MOSAIC"
],
  "ImagingFrequency": 123.2,
  "InPlanePhaseEncodingDirectionDICOM": "ROW",
  "InstitutionAddress": "Street StreetNo,City /652E4B/,District,KR,ZIP",
  "InstitutionName": "DGMIF",
  "InstitutionalDepartmentName": "Department",
  "MRAcquisitionType": "2D",
  "MagneticFieldStrength": 3,
  "Manufacturer": "Siemens",
  "ManufacturersModelName": "Skyra",
  "Modality": "MR",
  "PartialFourier": 1,
  "PatientPosition": "HFS",
  "PercentPhaseFOV": 100,
  "PercentSampling": 100,
  "PhaseEncodingDirection": "i",
  "PhaseEncodingSteps": 64,
  "PhaseResolution": 1,
  "PixelBandwidth": 1815,
  "ProcedureStepDescription": "DGMIF^DGIST",
  "ProtocolName": "EPI_DGIST_2",
  "PulseSequenceDetails": "%SiemensSeq%\\ep2d_bold",
  "ReceiveCoilActiveElements": "HC1-6",
  "ReceiveCoilName": "HeadNeck_64",
  "ReconMatrixPE": 64,
  "RepetitionTime": 2,
  "SAR": 0.132041,
  "ScanOptions": "FS",
  "ScanningSequence": "EP",
  "SequenceName": "*epfid2d1_64",
  "SequenceVariant": "SK",
  "SeriesDescription": "EPI_DGIST_2",
  "SeriesNumber": 3,
  "ShimSetting": [-9725, -13758, -8509, 271, -299, -751, -143, -209],
  "SliceThickness": 4,
  "SliceTiming": [0.99, 0, 1.055, 0.0675, 1.1225, 0.1325, 1.1875, 0.1975, 1.255, 0.265, 1.32, 0.33, 1.385, 0.395, 1.4525, 0.4625, 1.5175, 0.5275, 1.585, 0.595, 1.65, 0.66, 1.715, 0.725, 1.7825, 0.7925, 1.8475, 0.8575, 1.915, 0.925],
  "SoftwareVersions": "syngo MR E11",
  "SpacingBetweenSlices": 4.8,
  "StationName": "AWP45758",
  "TaskName": "asrt",
  "TotalReadoutTime": 0.0390594,
  "TxRefAmp": 309.938,
  "dcmmeta_affine": [
    [-2.997722864151001, -0.02616073004901409, 0.18224214017391205, 92.87248992919922],
    [-0.033473722636699677, 2.9935710430145264, -0.30947399139404297, -112.81219482421875],
    [0.11197056621313095, 0.19454532861709595, 4.786545276641846, -79.27487182617188],
    [0.0, 0.0, 0.0, 1.0]
],
  "dcmmeta_reorient_transform": [
    [0.0, -1.0, 0.0, 63.0],
    [1.0, 0.0, 0.0, 0.0],
    [0.0, 0.0, 1.0, 0.0],
    [0.0, 0.0, 0.0, 1.0]
],
  "dcmmeta_shape": [64, 64, 30, 364],
  "dcmmeta_slice_dim": 2,
  "dcmmeta_version": 0.6,
  "global": {
    "const": {
      "AcquisitionMatrix": [0, 64, 64, 0],
      "AngioFlag": "N",
      "BitsAllocated": 16,
      "BitsStored": 12,
      "BodyPartExamined": "BRAIN",
      "Columns": 384,
      "EchoNumbers": 1,
      "EchoTime": 30.0,
      "EchoTrainLength": 64,
      "FlipAngle": 90.0,
      "HighBit": 11,
      "ImageOrientationPatient": [0.99924093980465, 0.0111579078332, 0.03732352222267, -0.0087202435904, 0.99785702225237, -0.0648484424898],
      "ImagePositionPatient": [-566.67429492267, -560.10994859098, -53.806557486177],
      "ImageType": [
        "ORIGINAL",
        "PRIMARY",
        "M",
        "ND",
        "MOSAIC"
],
      "ImagedNucleus": "1H",
      "ImagingFrequency": 123.200319,
      "InPlanePhaseEncodingDirection": "ROW",
      "MRAcquisitionType": "2D",
      "MagneticFieldStrength": 3.0,
      "Manufacturer": "SIEMENS",
      "ManufacturerModelName": "Skyra",
      "Modality": "MR",
      "NumberOfAverages": 1.0,
      "NumberOfPhaseEncodingSteps": 64,
      "PercentPhaseFieldOfView": 100.0,
      "PercentSampling": 100.0,
      "PerformedProcedureStepStartTime": "135908.038000",
      "PhotometricInterpretation": "MONOCHROME2",
      "PixelBandwidth": 1815.0,
      "PixelRepresentation": 0,
      "PixelSpacing": [3.0, 3.0],
      "ProtocolName": "EPI_DGIST_2",
      "RepetitionTime": 2000.0,
      "Rows": 384,
      "SAR": 0.1320412602745,
      "SamplesPerPixel": 1,
      "ScanOptions": "FS",
      "ScanningSequence": "EP",
      "SequenceName": "*epfid2d1_64",
      "SequenceVariant": "SK",
      "SeriesDescription": "EPI_DGIST_2",
      "SeriesNumber": 3,
      "SeriesTime": "142146.605000",
      "SliceLocation": -68.253133361827,
      "SliceThickness": 4.0,
      "SmallestImagePixelValue": 0,
      "SoftwareVersions": "syngo MR E11",
      "SpacingBetweenSlices": 4.8000000001932,
      "SpecificCharacterSet": "ISO_IR 100",
      "StudyID": "1",
      "StudyTime": "135907.994000",
      "TransmitCoilName": "Body",
      "VariableFlipAngleFlag": "N",
      "WindowCenterWidthExplanation": "Algo1",
      "dBdt": 0.0},
    "slices": {}
  },
  "time": {
    "samples": {
      "AcquisitionNumber": [1, 2, 3, 4, 5, 6, 7, 8, 9, 10, 11, 12, 13, 14, 15, 16, 17, 18, 19, 20, 21, 22, 23, 24, 25, 26, 27, 28, 29, 30, 31, 32, 33, 34, 35, 36, 37, 38, 39, 40, 41, 42, 43, 44, 45, 46, 47, 48, 49, 50, 51, 52, 53, 54, 55, 56, 57, 58, 59, 60, 61, 62, 63, 64, 65, 66, 67, 68, 69, 70, 71, 72, 73, 74, 75, 76, 77, 78, 79, 80, 81, 82, 83, 84, 85, 86, 87, 88, 89, 90, 91, 92, 93, 94, 95, 96, 97, 98, 99, 100, 101, 102, 103, 104, 105, 106, 107, 108, 109, 110, 111, 112, 113, 114, 115, 116, 117, 118, 119, 120, 121, 122, 123, 124, 125, 126, 127, 128, 129, 130, 131, 132, 133, 134, 135, 136, 137, 138, 139, 140, 141, 142, 143, 144, 145, 146, 147, 148, 149, 150, 151, 152, 153, 154, 155, 156, 157, 158, 159, 160, 161, 162, 163, 164, 165, 166, 167, 168, 169, 170, 171, 172, 173, 174, 175, 176, 177, 178, 179, 180, 181, 182, 183, 184, 185, 186, 187, 188, 189, 190, 191, 192, 193, 194, 195, 196, 197, 198, 199, 200, 201, 202, 203, 204, 205, 206, 207, 208, 209, 210, 211, 212, 213, 214, 215, 216, 217, 218, 219, 220, 221, 222, 223, 224, 225, 226, 227, 228, 229, 230, 231, 232, 233, 234, 235, 236, 237, 238, 239, 240, 241, 242, 243, 244, 245, 246, 247, 248, 249, 250, 251, 252, 253, 254, 255, 256, 257, 258, 259, 260, 261, 262, 263, 264, 265, 266, 267, 268, 269, 270, 271, 272, 273, 274, 275, 276, 277, 278, 279, 280, 281, 282, 283, 284, 285, 286, 287, 288, 289, 290, 291, 292, 293, 294, 295, 296, 297, 298, 299, 300, 301, 302, 303, 304, 305, 306, 307, 308, 309, 310, 311, 312, 313, 314, 315, 316, 317, 318, 319, 320, 321, 322, 323, 324, 325, 326, 327, 328, 329, 330, 331, 332, 333, 334, 335, 336, 337, 338, 339, 340, 341, 342, 343, 344, 345, 346, 347, 348, 349, 350, 351, 352, 353, 354, 355, 356, 357, 358, 359, 360, 361, 362, 363, 364],
      "AcquisitionTime": ["142141.400000", "142143.400000", "142145.400000", "142147.400000", "142149.400000", "142151.400000", "142153.400000", "142155.400000", "142157.400000", "142159.400000", "142201.400000", "142203.400000", "142205.400000", "142207.400000", "142209.400000", "142211.400000", "142213.400000", "142215.400000", "142217.400000", "142219.400000", "142221.400000", "142223.400000", "142225.400000", "142227.400000", "142229.400000", "142231.400000", "142233.400000", "142235.400000", "142237.400000", "142239.400000", "142241.400000", "142243.400000", "142245.400000", "142247.400000", "142249.400000", "142251.400000", "142253.400000", "142255.400000", "142257.400000", "142259.400000", "142301.400000", "142303.400000", "142305.400000", "142307.400000", "142309.400000", "142311.400000", "142313.400000", "142315.400000", "142317.400000", "142319.400000", "142321.400000", "142323.400000", "142325.400000", "142327.400000", "142329.400000", "142331.400000", "142333.400000", "142335.400000", "142337.400000", "142339.400000", "142341.400000", "142343.400000", "142345.400000", "142347.400000", "142349.400000", "142351.400000", "142353.400000", "142355.400000", "142357.400000", "142359.400000", "142401.400000", "142403.400000", "142405.400000", "142407.400000", "142409.400000", "142411.400000", "142413.400000", "142415.400000", "142417.400000", "142419.400000", "142421.400000", "142423.400000", "142425.400000", "142427.400000", "142429.400000", "142431.400000", "142433.400000", "142435.400000", "142437.400000", "142439.400000", "142441.400000", "142443.400000", "142445.400000", "142447.400000", "142449.400000", "142451.400000", "142453.400000", "142455.400000", "142457.400000", "142459.400000", "142501.400000", "142503.400000", "142505.400000", "142507.400000", "142509.400000", "142511.400000", "142513.400000", "142515.400000", "142517.400000", "142519.400000", "142521.400000", "142523.400000", "142525.400000", "142527.400000", "142529.400000", "142531.400000", "142533.400000", "142535.400000", "142537.400000", "142539.400000", "142541.400000", "142543.400000", "142545.400000", "142547.400000", "142549.400000", "142551.400000", "142553.400000", "142555.400000", "142557.400000", "142559.400000", "142601.400000", "142603.400000", "142605.400000", "142607.400000", "142609.400000", "142611.400000", "142613.400000", "142615.400000", "142617.400000", "142619.400000", "142621.400000", "142623.400000", "142625.400000", "142627.400000", "142629.400000", "142631.400000", "142633.400000", "142635.400000", "142637.400000", "142639.400000", "142641.400000", "142643.400000", "142645.400000", "142647.400000", "142649.400000", "142651.400000", "142653.400000", "142655.400000", "142657.400000", "142659.400000", "142701.400000", "142703.400000", "142705.400000", "142707.400000", "142709.400000", "142711.400000", "142713.400000", "142715.400000", "142717.400000", "142719.400000", "142721.400000", "142723.400000", "142725.400000", "142727.400000", "142729.400000", "142731.400000", "142733.400000", "142735.400000", "142737.400000", "142739.400000", "142741.400000", "142743.400000", "142745.400000", "142747.400000", "142749.400000", "142751.400000", "142753.400000", "142755.400000", "142757.400000", "142759.400000", "142801.400000", "142803.400000", "142805.400000", "142807.400000", "142809.400000", "142811.400000", "142813.400000", "142815.400000", "142817.400000", "142819.400000", "142821.400000", "142823.400000", "142825.400000", "142827.400000", "142829.400000", "142831.400000", "142833.400000", "142835.400000", "142837.400000", "142839.400000", "142841.400000", "142843.400000", "142845.400000", "142847.400000", "142849.400000", "142851.400000", "142853.400000", "142855.400000", "142857.400000", "142859.400000", "142901.400000", "142903.400000", "142905.400000", "142907.400000", "142909.400000", "142911.400000", "142913.400000", "142915.400000", "142917.400000", "142919.400000", "142921.400000", "142923.400000", "142925.400000", "142927.400000", "142929.400000", "142931.400000", "142933.400000", "142935.400000", "142937.400000", "142939.400000", "142941.400000", "142943.400000", "142945.400000", "142947.400000", "142949.400000", "142951.400000", "142953.400000", "142955.400000", "142957.400000", "142959.400000", "143001.400000", "143003.400000", "143005.400000", "143007.400000", "143009.400000", "143011.400000", "143013.400000", "143015.400000", "143017.400000", "143019.400000", "143021.400000", "143023.400000", "143025.400000", "143027.400000", "143029.400000", "143031.400000", "143033.400000", "143035.400000", "143037.400000", "143039.400000", "143041.400000", "143043.400000", "143045.400000", "143047.400000", "143049.400000", "143051.400000", "143053.400000", "143055.400000", "143057.400000", "143059.400000", "143101.400000", "143103.400000", "143105.400000", "143107.400000", "143109.400000", "143111.400000", "143113.400000", "143115.400000", "143117.400000", "143119.400000", "143121.400000", "143123.400000", "143125.400000", "143127.400000", "143129.400000", "143131.400000", "143133.400000", "143135.400000", "143137.400000", "143139.400000", "143141.400000", "143143.400000", "143145.400000", "143147.400000", "143149.400000", "143151.400000", "143153.400000", "143155.400000", "143157.400000", "143159.400000", "143201.400000", "143203.400000", "143205.400000", "143207.400000", "143209.400000", "143211.400000", "143213.400000", "143215.400000", "143217.400000", "143219.400000", "143221.400000", "143223.400000", "143225.400000", "143227.400000", "143229.400000", "143231.400000", "143233.400000", "143235.400000", "143237.400000", "143239.400000", "143241.400000", "143243.400000", "143245.400000", "143247.400000", "143249.400000", "143251.400000", "143253.400000", "143255.400000", "143257.400000", "143259.400000", "143301.400000", "143303.400000", "143305.400000", "143307.400000", "143309.400000", "143311.400000", "143313.400000", "143315.400000", "143317.400000", "143319.400000", "143321.400000", "143323.400000", "143325.400000", "143327.400000", "143329.400000", "143331.400000", "143333.400000", "143335.400000", "143337.400000", "143339.400000", "143341.400000", "143343.400000", "143345.400000", "143347.400000"],
      "ContentTime": ["142146.608000", "142146.612000", "142226.589000", "142226.601000", "142226.603000", "142226.606000", "142226.608000", "142226.611000", "142226.613000", "142226.616000", "142226.618000", "142226.621000", "142226.625000", "142226.627000", "142226.629000", "142226.632000", "142226.634000", "142226.637000", "142226.639000", "142226.642000", "142226.644000", "142226.647000", "142306.589000", "142306.592000", "142306.595000", "142306.597000", "142306.600000", "142306.602000", "142306.605000", "142306.607000", "142306.610000", "142306.612000", "142306.614000", "142306.617000", "142306.619000", "142306.622000", "142306.624000", "142306.627000", "142306.633000", "142306.635000", "142306.638000", "142306.640000", "142346.590000", "142346.593000", "142346.596000", "142346.598000", "142346.601000", "142346.603000", "142346.605000", "142346.608000", "142346.610000", "142346.613000", "142346.615000", "142346.618000", "142346.620000", "142346.630000", "142346.632000", "142346.635000", "142346.637000", "142346.640000", "142346.642000", "142346.645000", "142426.589000", "142426.592000", "142426.595000", "142426.597000", "142426.600000", "142426.602000", "142426.605000", "142426.607000", "142426.609000", "142426.612000", "142426.614000", "142426.617000", "142426.619000", "142426.622000", "142426.624000", "142426.627000", "142426.629000", "142426.631000", "142426.634000", "142426.636000", "142506.589000", "142506.592000", "142506.595000", "142506.597000", "142506.610000", "142506.612000", "142506.615000", "142506.617000", "142506.620000", "142506.622000", "142506.625000", "142506.627000", "142506.630000", "142506.632000", "142506.635000", "142506.637000", "142506.639000", "142506.642000", "142506.644000", "142506.647000", "142546.589000", "142546.592000", "142546.594000", "142546.597000", "142546.599000", "142546.602000", "142546.604000", "142546.607000", "142546.609000", "142546.612000", "142546.624000", "142546.626000", "142546.629000", "142546.631000", "142546.634000", "142546.636000", "142546.639000", "142546.641000", "142546.644000", "142546.646000", "142626.590000", "142626.592000", "142626.595000", "142626.597000", "142626.600000", "142626.602000", "142626.605000", "142626.607000", "142626.610000", "142626.612000", "142626.615000", "142626.617000", "142626.620000", "142626.622000", "142626.625000", "142626.627000", "142626.629000", "142626.639000", "142626.641000", "142626.644000", "142706.589000", "142706.592000", "142706.595000", "142706.597000", "142706.599000", "142706.602000", "142706.604000", "142706.607000", "142706.609000", "142706.612000", "142706.614000", "142706.617000", "142706.619000", "142706.622000", "142706.624000", "142706.626000", "142706.629000", "142706.631000", "142706.634000", "142706.636000", "142746.589000", "142746.592000", "142746.595000", "142746.597000", "142746.599000", "142746.602000", "142746.604000", "142746.607000", "142746.609000", "142746.612000", "142746.614000", "142746.617000", "142746.619000", "142746.622000", "142746.624000", "142746.627000", "142746.629000", "142746.632000", "142746.634000", "142746.636000", "142826.590000", "142826.593000", "142826.596000", "142826.598000", "142826.601000", "142826.603000", "142826.605000", "142826.608000", "142826.610000", "142826.613000", "142826.615000", "142826.618000", "142826.620000", "142826.623000", "142826.625000", "142826.627000", "142826.630000", "142826.632000", "142826.635000", "142826.637000", "142906.589000", "142906.592000", "142906.595000", "142906.597000", "142906.599000", "142906.602000", "142906.604000", "142906.607000", "142906.609000", "142906.612000", "142906.614000", "142906.617000", "142906.619000", "142906.622000", "142906.624000", "142906.626000", "142906.629000", "142906.631000", "142906.634000", "142906.636000", "142946.589000", "142946.592000", "142946.595000", "142946.597000", "142946.599000", "142946.602000", "142946.604000", "142946.607000", "142946.609000", "142946.612000", "142946.614000", "142946.617000", "142946.619000", "142946.622000", "142946.624000", "142946.627000", "142946.629000", "142946.632000", "142946.634000", "142946.636000", "143026.589000", "143026.592000", "143026.595000", "143026.597000", "143026.600000", "143026.602000", "143026.605000", "143026.607000", "143026.609000", "143026.612000", "143026.614000", "143026.617000", "143026.619000", "143026.622000", "143026.624000", "143026.627000", "143026.629000", "143026.632000", "143026.634000", "143026.637000", "143106.590000", "143106.592000", "143106.595000", "143106.597000", "143106.600000", "143106.603000", "143106.606000", "143106.608000", "143106.611000", "143106.613000", "143106.616000", "143106.618000", "143106.621000", "143106.624000", "143106.626000", "143106.629000", "143106.631000", "143106.634000", "143106.636000", "143106.639000", "143146.590000", "143146.593000", "143146.595000", "143146.597000", "143146.600000", "143146.603000", "143146.605000", "143146.608000", "143146.610000", "143146.613000", "143146.615000", "143146.618000", "143146.620000", "143146.623000", "143146.625000", "143146.628000", "143146.630000", "143146.633000", "143146.636000", "143146.638000", "143226.589000", "143226.592000", "143226.595000", "143226.597000", "143226.600000", "143226.602000", "143226.605000", "143226.607000", "143226.610000", "143226.612000", "143226.614000", "143226.617000", "143226.619000", "143226.622000", "143226.624000", "143226.627000", "143226.629000", "143226.632000", "143226.634000", "143226.636000", "143306.591000", "143306.593000", "143306.596000", "143306.598000", "143306.601000", "143306.603000", "143306.606000", "143306.608000", "143306.611000", "143306.613000", "143306.616000", "143306.618000", "143306.620000", "143306.623000", "143306.625000", "143306.628000", "143306.630000", "143306.633000", "143306.642000", "143306.645000", "143346.589000", "143346.592000", "143346.595000", "143346.597000", "143346.600000", "143346.602000", "143346.605000", "143346.607000", "143346.610000", "143346.612000", "143346.615000", "143346.617000", "143346.620000", "143346.622000", "143346.624000", "143346.627000", "143346.629000", "143346.632000", "143346.634000", "143346.637000", "143349.242000", "143349.245000"],
      "InstanceCreationTime": ["142146.608000", "142146.612000", "142226.589000", "142226.601000", "142226.603000", "142226.606000", "142226.608000", "142226.611000", "142226.613000", "142226.616000", "142226.618000", "142226.621000", "142226.625000", "142226.627000", "142226.629000", "142226.632000", "142226.634000", "142226.637000", "142226.639000", "142226.642000", "142226.644000", "142226.647000", "142306.589000", "142306.592000", "142306.595000", "142306.597000", "142306.600000", "142306.602000", "142306.605000", "142306.607000", "142306.610000", "142306.612000", "142306.614000", "142306.617000", "142306.619000", "142306.622000", "142306.624000", "142306.627000", "142306.633000", "142306.635000", "142306.638000", "142306.640000", "142346.590000", "142346.593000", "142346.596000", "142346.598000", "142346.601000", "142346.603000", "142346.605000", "142346.608000", "142346.610000", "142346.613000", "142346.615000", "142346.618000", "142346.620000", "142346.630000", "142346.632000", "142346.635000", "142346.637000", "142346.640000", "142346.642000", "142346.645000", "142426.589000", "142426.592000", "142426.595000", "142426.597000", "142426.600000", "142426.602000", "142426.605000", "142426.607000", "142426.609000", "142426.612000", "142426.614000", "142426.617000", "142426.619000", "142426.622000", "142426.624000", "142426.627000", "142426.629000", "142426.631000", "142426.634000", "142426.636000", "142506.589000", "142506.592000", "142506.595000", "142506.597000", "142506.610000", "142506.612000", "142506.615000", "142506.617000", "142506.620000", "142506.622000", "142506.625000", "142506.627000", "142506.630000", "142506.632000", "142506.635000", "142506.637000", "142506.639000", "142506.642000", "142506.644000", "142506.647000", "142546.589000", "142546.592000", "142546.594000", "142546.597000", "142546.599000", "142546.602000", "142546.604000", "142546.607000", "142546.609000", "142546.612000", "142546.624000", "142546.626000", "142546.629000", "142546.631000", "142546.634000", "142546.636000", "142546.639000", "142546.641000", "142546.644000", "142546.646000", "142626.590000", "142626.592000", "142626.595000", "142626.597000", "142626.600000", "142626.602000", "142626.605000", "142626.607000", "142626.610000", "142626.612000", "142626.615000", "142626.617000", "142626.620000", "142626.622000", "142626.625000", "142626.627000", "142626.629000", "142626.639000", "142626.641000", "142626.644000", "142706.589000", "142706.592000", "142706.595000", "142706.597000", "142706.599000", "142706.602000", "142706.604000", "142706.607000", "142706.609000", "142706.612000", "142706.614000", "142706.617000", "142706.619000", "142706.622000", "142706.624000", "142706.626000", "142706.629000", "142706.631000", "142706.634000", "142706.636000", "142746.589000", "142746.592000", "142746.595000", "142746.597000", "142746.599000", "142746.602000", "142746.604000", "142746.607000", "142746.609000", "142746.612000", "142746.614000", "142746.617000", "142746.619000", "142746.622000", "142746.624000", "142746.627000", "142746.629000", "142746.632000", "142746.634000", "142746.636000", "142826.590000", "142826.593000", "142826.596000", "142826.598000", "142826.601000", "142826.603000", "142826.605000", "142826.608000", "142826.610000", "142826.613000", "142826.615000", "142826.618000", "142826.620000", "142826.623000", "142826.625000", "142826.627000", "142826.630000", "142826.632000", "142826.635000", "142826.637000", "142906.589000", "142906.592000", "142906.595000", "142906.597000", "142906.599000", "142906.602000", "142906.604000", "142906.607000", "142906.609000", "142906.612000", "142906.614000", "142906.617000", "142906.619000", "142906.622000", "142906.624000", "142906.626000", "142906.629000", "142906.631000", "142906.634000", "142906.636000", "142946.589000", "142946.592000", "142946.595000", "142946.597000", "142946.599000", "142946.602000", "142946.604000", "142946.607000", "142946.609000", "142946.612000", "142946.614000", "142946.617000", "142946.619000", "142946.622000", "142946.624000", "142946.627000", "142946.629000", "142946.632000", "142946.634000", "142946.636000", "143026.589000", "143026.592000", "143026.595000", "143026.597000", "143026.600000", "143026.602000", "143026.605000", "143026.607000", "143026.609000", "143026.612000", "143026.614000", "143026.617000", "143026.619000", "143026.622000", "143026.624000", "143026.627000", "143026.629000", "143026.632000", "143026.634000", "143026.637000", "143106.590000", "143106.592000", "143106.595000", "143106.597000", "143106.600000", "143106.603000", "143106.606000", "143106.608000", "143106.611000", "143106.613000", "143106.616000", "143106.618000", "143106.621000", "143106.624000", "143106.626000", "143106.629000", "143106.631000", "143106.634000", "143106.636000", "143106.639000", "143146.590000", "143146.593000", "143146.595000", "143146.597000", "143146.600000", "143146.603000", "143146.605000", "143146.608000", "143146.610000", "143146.613000", "143146.615000", "143146.618000", "143146.620000", "143146.623000", "143146.625000", "143146.628000", "143146.630000", "143146.633000", "143146.636000", "143146.638000", "143226.589000", "143226.592000", "143226.595000", "143226.597000", "143226.600000", "143226.602000", "143226.605000", "143226.607000", "143226.610000", "143226.612000", "143226.614000", "143226.617000", "143226.619000", "143226.622000", "143226.624000", "143226.627000", "143226.629000", "143226.632000", "143226.634000", "143226.636000", "143306.591000", "143306.593000", "143306.596000", "143306.598000", "143306.601000", "143306.603000", "143306.606000", "143306.608000", "143306.611000", "143306.613000", "143306.616000", "143306.618000", "143306.620000", "143306.623000", "143306.625000", "143306.628000", "143306.630000", "143306.633000", "143306.642000", "143306.645000", "143346.589000", "143346.592000", "143346.595000", "143346.597000", "143346.600000", "143346.602000", "143346.605000", "143346.607000", "143346.610000", "143346.612000", "143346.615000", "143346.617000", "143346.620000", "143346.622000", "143346.624000", "143346.627000", "143346.629000", "143346.632000", "143346.634000", "143346.637000", "143349.242000", "143349.245000"],
      "InstanceNumber": [1, 2, 3, 4, 5, 6, 7, 8, 9, 10, 11, 12, 13, 14, 15, 16, 17, 18, 19, 20, 21, 22, 23, 24, 25, 26, 27, 28, 29, 30, 31, 32, 33, 34, 35, 36, 37, 38, 39, 40, 41, 42, 43, 44, 45, 46, 47, 48, 49, 50, 51, 52, 53, 54, 55, 56, 57, 58, 59, 60, 61, 62, 63, 64, 65, 66, 67, 68, 69, 70, 71, 72, 73, 74, 75, 76, 77, 78, 79, 80, 81, 82, 83, 84, 85, 86, 87, 88, 89, 90, 91, 92, 93, 94, 95, 96, 97, 98, 99, 100, 101, 102, 103, 104, 105, 106, 107, 108, 109, 110, 111, 112, 113, 114, 115, 116, 117, 118, 119, 120, 121, 122, 123, 124, 125, 126, 127, 128, 129, 130, 131, 132, 133, 134, 135, 136, 137, 138, 139, 140, 141, 142, 143, 144, 145, 146, 147, 148, 149, 150, 151, 152, 153, 154, 155, 156, 157, 158, 159, 160, 161, 162, 163, 164, 165, 166, 167, 168, 169, 170, 171, 172, 173, 174, 175, 176, 177, 178, 179, 180, 181, 182, 183, 184, 185, 186, 187, 188, 189, 190, 191, 192, 193, 194, 195, 196, 197, 198, 199, 200, 201, 202, 203, 204, 205, 206, 207, 208, 209, 210, 211, 212, 213, 214, 215, 216, 217, 218, 219, 220, 221, 222, 223, 224, 225, 226, 227, 228, 229, 230, 231, 232, 233, 234, 235, 236, 237, 238, 239, 240, 241, 242, 243, 244, 245, 246, 247, 248, 249, 250, 251, 252, 253, 254, 255, 256, 257, 258, 259, 260, 261, 262, 263, 264, 265, 266, 267, 268, 269, 270, 271, 272, 273, 274, 275, 276, 277, 278, 279, 280, 281, 282, 283, 284, 285, 286, 287, 288, 289, 290, 291, 292, 293, 294, 295, 296, 297, 298, 299, 300, 301, 302, 303, 304, 305, 306, 307, 308, 309, 310, 311, 312, 313, 314, 315, 316, 317, 318, 319, 320, 321, 322, 323, 324, 325, 326, 327, 328, 329, 330, 331, 332, 333, 334, 335, 336, 337, 338, 339, 340, 341, 342, 343, 344, 345, 346, 347, 348, 349, 350, 351, 352, 353, 354, 355, 356, 357, 358, 359, 360, 361, 362, 363, 364],
      "LargestImagePixelValue": [2739, 2698, 2614, 2568, 2583, 2591, 2578, 2602, 2624, 2608, 2636, 2653, 2593, 2619, 2570, 2616, 2605, 2600, 2613, 2605, 2620, 2603, 2612, 2599, 2624, 2610, 2621, 2603, 2626, 2648, 2572, 2638, 2619, 2643, 2605, 2609, 2594, 2595, 2599, 2605, 2598, 2590, 2613, 2595, 2633, 2601, 2626, 2616, 2620, 2604, 2559, 2577, 2567, 2620, 2608, 2616, 2621, 2606, 2587, 2617, 2577, 2587, 2605, 2633, 2616, 2583, 2571, 2608, 2566, 2603, 2581, 2625, 2572, 2612, 2597, 2601, 2572, 2587, 2570, 2609, 2596, 2594, 2630, 2599, 2627, 2595, 2631, 2617, 2582, 2599, 2567, 2600, 2608, 2603, 2601, 2598, 2553, 2562, 2579, 2619, 2608, 2635, 2631, 2612, 2616, 2600, 2591, 2593, 2605, 2602, 2615, 2584, 2614, 2589, 2632, 2605, 2627, 2596, 2591, 2600, 2565, 2578, 2586, 2590, 2592, 2590, 2587, 2578, 2604, 2584, 2597, 2609, 2589, 2604, 2604, 2618, 2614, 2617, 2591, 2582, 2611, 2598, 2614, 2609, 2584, 2612, 2583, 2595, 2598, 2603, 2576, 2607, 2564, 2585, 2588, 2605, 2590, 2549, 2592, 2575, 2612, 2605, 2617, 2593, 2574, 2585, 2596, 2580, 2578, 2577, 2594, 2579, 2590, 2552, 2581, 2560, 2592, 2574, 2598, 2572, 2581, 2612, 2601, 2597, 2613, 2575, 2586, 2577, 2597, 2616, 2609, 2593, 2600, 2616, 2567, 2629, 2580, 2578, 2584, 2591, 2594, 2612, 2620, 2607, 2596, 2589, 2610, 2602, 2597, 2619, 2599, 2618, 2537, 2591, 2556, 2605, 2585, 2607, 2593, 2572, 2593, 2579, 2629, 2589, 2608, 2587, 2599, 2575, 2579, 2603, 2581, 2633, 2578, 2590, 2585, 2593, 2581, 2565, 2585, 2582, 2602, 2539, 2610, 2553, 2591, 2577, 2600, 2599, 2585, 2593, 2600, 2614, 2594, 2581, 2580, 2565, 2599, 2599, 2594, 2601, 2600, 2602, 2621, 2605, 2604, 2590, 2616, 2588, 2607, 2600, 2588, 2604, 2570, 2605, 2608, 2617, 2601, 2601, 2590, 2583, 2583, 2593, 2595, 2607, 2602, 2603, 2583, 2606, 2592, 2615, 2580, 2618, 2603, 2588, 2612, 2578, 2584, 2583, 2600, 2596, 2607, 2582, 2591, 2628, 2600, 2588, 2592, 2580, 2603, 2593, 2603, 2602, 2606, 2602, 2595, 2590, 2617, 2582, 2592, 2576, 2607, 2592, 2587, 2612, 2633, 2587, 2604, 2620, 2611, 2580, 2584, 2587, 2588, 2599, 2590, 2588, 2596, 2594, 2584, 2619, 2599, 2589, 2630, 2600, 2609, 2592, 2586, 2600, 2569, 2596, 2582, 2590, 2621, 2626, 2606, 2613, 2611, 2599, 2603, 2590, 2602, 2606, 2596, 2594],
