{
  "AcquisitionMatrixPE": 64,
  "AcquisitionNumber": 1,
  "AcquisitionTime": "11:45:52.787500",
  "BandwidthPerPixelPhaseEncode": 25.202,
  "BaseResolution": 64,
  "BodyPartExamined": "BRAIN",
  "ConsistencyInfo": "N4_VE11C_LATEST_20160120",
  "ConversionSoftware": "dcm2niix",
  "ConversionSoftwareVersion": "v1.0.20201102",
  "DerivedVendorReportedEchoSpacing": 0.00061999,
  "DeviceSerialNumber": "45758",
  "DwellTime": 4.3e-06,
  "EchoTime": 0.03,
  "EchoTrainLength": 64,
  "EffectiveEchoSpacing": 0.00061999,
  "FlipAngle": 90,
  "ImageOrientationPatientDICOM": [0.999068, 0.0188917, -0.0388171, -0.0156946, 0.996584, 0.0810764],
  "ImageType": [
    "ORIGINAL",
    "PRIMARY",
    "M",
    "ND",
    "MOSAIC"
],
  "ImagingFrequency": 123.2,
  "InPlanePhaseEncodingDirectionDICOM": "ROW",
  "InstitutionAddress": "Street StreetNo,City /652E4B/,District,KR,ZIP",
  "InstitutionName": "DGMIF",
  "InstitutionalDepartmentName": "Department",
  "MRAcquisitionType": "2D",
  "MagneticFieldStrength": 3,
  "Manufacturer": "Siemens",
  "ManufacturersModelName": "Skyra",
  "Modality": "MR",
  "PartialFourier": 1,
  "PatientPosition": "HFS",
  "PercentPhaseFOV": 100,
  "PercentSampling": 100,
  "PhaseEncodingDirection": "i",
  "PhaseEncodingSteps": 64,
  "PhaseResolution": 1,
  "PixelBandwidth": 1815,
  "ProcedureStepDescription": "DGMIF^DGIST",
  "ProtocolName": "EPI_DGIST_2",
  "PulseSequenceDetails": "%SiemensSeq%\\ep2d_bold",
  "ReceiveCoilActiveElements": "HC1-7",
  "ReceiveCoilName": "HeadNeck_64",
  "ReconMatrixPE": 64,
  "RepetitionTime": 2,
  "SAR": 0.106406,
  "ScanOptions": "FS",
  "ScanningSequence": "EP",
  "SequenceName": "*epfid2d1_64",
  "SequenceVariant": "SK",
  "SeriesDescription": "EPI_DGIST_2",
  "SeriesNumber": 3,
  "ShimSetting": [-9722, -13660, -8516, 278, -392, -850, -578, -7],
  "SliceThickness": 4,
  "SliceTiming": [0.99, 0, 1.0575, 0.0675, 1.1225, 0.1325, 1.1875, 0.1975, 1.255, 0.265, 1.32, 0.33, 1.3875, 0.3975, 1.4525, 0.4625, 1.5175, 0.5275, 1.585, 0.595, 1.65, 0.66, 1.7175, 0.7275, 1.7825, 0.7925, 1.8475, 0.8575, 1.915, 0.925],
  "SoftwareVersions": "syngo MR E11",
  "SpacingBetweenSlices": 4.8,
  "StationName": "AWP45758",
  "TaskName": "asrt",
  "TotalReadoutTime": 0.0390594,
  "TxRefAmp": 302.604,
  "dcmmeta_affine": [
    [-2.9972031116485596, -0.04708383232355118, -0.19303743541240692, 96.54122161865234],
    [-0.056674957275390625, 2.989753007888794, 0.3858795762062073, -129.48770141601562],
    [-0.11645115166902542, -0.24322913587093353, 4.7805681228637695, -62.650360107421875],
    [0.0, 0.0, 0.0, 1.0]
],
  "dcmmeta_reorient_transform": [
    [0.0, -1.0, 0.0, 63.0],
    [1.0, 0.0, 0.0, 0.0],
    [0.0, 0.0, 1.0, 0.0],
    [0.0, 0.0, 0.0, 1.0]
],
  "dcmmeta_shape": [64, 64, 30, 364],
  "dcmmeta_slice_dim": 2,
  "dcmmeta_version": 0.6,
  "global": {
    "const": {
      "AcquisitionMatrix": [0, 64, 64, 0],
      "AngioFlag": "N",
      "BitsAllocated": 16,
      "BitsStored": 12,
      "BodyPartExamined": "BRAIN",
      "Columns": 384,
      "EchoNumbers": 1,
      "EchoTime": 30.0,
      "EchoTrainLength": 64,
      "FlipAngle": 90.0,
      "HighBit": 11,
      "ImageOrientationPatient": [0.99906773643505, 0.01889165297555, -0.0388170511812, -0.0156946105723, 0.99658431642206, 0.08107638041112],
      "ImagePositionPatient": [-565.59403726625, -546.2951932241, -98.258274271179],
      "ImageType": [
        "ORIGINAL",
        "PRIMARY",
        "M",
        "ND",
        "MOSAIC"
],
      "ImagedNucleus": "1H",
      "ImagingFrequency": 123.200234,
      "InPlanePhaseEncodingDirection": "ROW",
      "MRAcquisitionType": "2D",
      "MagneticFieldStrength": 3.0,
      "Manufacturer": "SIEMENS",
      "ManufacturerModelName": "Skyra",
      "Modality": "MR",
      "NumberOfAverages": 1.0,
      "NumberOfPhaseEncodingSteps": 64,
      "PercentPhaseFieldOfView": 100.0,
      "PercentSampling": 100.0,
      "PerformedProcedureStepStartTime": "111851.345000",
      "PhotometricInterpretation": "MONOCHROME2",
      "PixelBandwidth": 1815.0,
      "PixelRepresentation": 0,
      "PixelSpacing": [3.0, 3.0],
      "ProtocolName": "EPI_DGIST_2",
      "RepetitionTime": 2000.0,
      "Rows": 384,
      "SAR": 0.10640585256211,
      "SamplesPerPixel": 1,
      "ScanOptions": "FS",
      "ScanningSequence": "EP",
      "SequenceName": "*epfid2d1_64",
      "SequenceVariant": "SK",
      "SeriesDescription": "EPI_DGIST_2",
      "SeriesNumber": 3,
      "SeriesTime": "114633.116000",
      "SliceLocation": -76.688970429376,
      "SliceThickness": 4.0,
      "SmallestImagePixelValue": 0,
      "SoftwareVersions": "syngo MR E11",
      "SpacingBetweenSlices": 4.8000000289668,
      "SpecificCharacterSet": "ISO_IR 100",
      "StudyID": "1",
      "StudyTime": "111851.286000",
      "TransmitCoilName": "Body",
      "VariableFlipAngleFlag": "N",
      "WindowCenterWidthExplanation": "Algo1",
      "dBdt": 0.0},
    "slices": {}
  },
  "time": {
    "samples": {
      "AcquisitionNumber": [1, 2, 3, 4, 5, 6, 7, 8, 9, 10, 11, 12, 13, 14, 15, 16, 17, 18, 19, 20, 21, 22, 23, 24, 25, 26, 27, 28, 29, 30, 31, 32, 33, 34, 35, 36, 37, 38, 39, 40, 41, 42, 43, 44, 45, 46, 47, 48, 49, 50, 51, 52, 53, 54, 55, 56, 57, 58, 59, 60, 61, 62, 63, 64, 65, 66, 67, 68, 69, 70, 71, 72, 73, 74, 75, 76, 77, 78, 79, 80, 81, 82, 83, 84, 85, 86, 87, 88, 89, 90, 91, 92, 93, 94, 95, 96, 97, 98, 99, 100, 101, 102, 103, 104, 105, 106, 107, 108, 109, 110, 111, 112, 113, 114, 115, 116, 117, 118, 119, 120, 121, 122, 123, 124, 125, 126, 127, 128, 129, 130, 131, 132, 133, 134, 135, 136, 137, 138, 139, 140, 141, 142, 143, 144, 145, 146, 147, 148, 149, 150, 151, 152, 153, 154, 155, 156, 157, 158, 159, 160, 161, 162, 163, 164, 165, 166, 167, 168, 169, 170, 171, 172, 173, 174, 175, 176, 177, 178, 179, 180, 181, 182, 183, 184, 185, 186, 187, 188, 189, 190, 191, 192, 193, 194, 195, 196, 197, 198, 199, 200, 201, 202, 203, 204, 205, 206, 207, 208, 209, 210, 211, 212, 213, 214, 215, 216, 217, 218, 219, 220, 221, 222, 223, 224, 225, 226, 227, 228, 229, 230, 231, 232, 233, 234, 235, 236, 237, 238, 239, 240, 241, 242, 243, 244, 245, 246, 247, 248, 249, 250, 251, 252, 253, 254, 255, 256, 257, 258, 259, 260, 261, 262, 263, 264, 265, 266, 267, 268, 269, 270, 271, 272, 273, 274, 275, 276, 277, 278, 279, 280, 281, 282, 283, 284, 285, 286, 287, 288, 289, 290, 291, 292, 293, 294, 295, 296, 297, 298, 299, 300, 301, 302, 303, 304, 305, 306, 307, 308, 309, 310, 311, 312, 313, 314, 315, 316, 317, 318, 319, 320, 321, 322, 323, 324, 325, 326, 327, 328, 329, 330, 331, 332, 333, 334, 335, 336, 337, 338, 339, 340, 341, 342, 343, 344, 345, 346, 347, 348, 349, 350, 351, 352, 353, 354, 355, 356, 357, 358, 359, 360, 361, 362, 363, 364],
      "AcquisitionTime": ["114552.787500", "114554.787500", "114556.787500", "114558.787500", "114600.787500", "114602.787500", "114604.787500", "114606.787500", "114608.787500", "114610.787500", "114612.787500", "114614.787500", "114616.787500", "114618.787500", "114620.787500", "114622.787500", "114624.787500", "114626.787500", "114628.787500", "114630.787500", "114632.787500", "114634.787500", "114636.787500", "114638.787500", "114640.787500", "114642.787500", "114644.787500", "114646.787500", "114648.787500", "114650.787500", "114652.787500", "114654.787500", "114656.787500", "114658.787500", "114700.787500", "114702.787500", "114704.787500", "114706.787500", "114708.787500", "114710.787500", "114712.787500", "114714.787500", "114716.787500", "114718.787500", "114720.787500", "114722.787500", "114724.787500", "114726.787500", "114728.787500", "114730.787500", "114732.787500", "114734.787500", "114736.787500", "114738.787500", "114740.787500", "114742.787500", "114744.787500", "114746.787500", "114748.787500", "114750.787500", "114752.787500", "114754.787500", "114756.787500", "114758.787500", "114800.787500", "114802.787500", "114804.787500", "114806.787500", "114808.787500", "114810.787500", "114812.787500", "114814.787500", "114816.787500", "114818.787500", "114820.787500", "114822.787500", "114824.787500", "114826.787500", "114828.787500", "114830.787500", "114832.787500", "114834.787500", "114836.787500", "114838.787500", "114840.787500", "114842.787500", "114844.787500", "114846.787500", "114848.787500", "114850.787500", "114852.787500", "114854.787500", "114856.787500", "114858.787500", "114900.787500", "114902.787500", "114904.787500", "114906.787500", "114908.787500", "114910.787500", "114912.787500", "114914.787500", "114916.787500", "114918.787500", "114920.787500", "114922.787500", "114924.787500", "114926.787500", "114928.787500", "114930.787500", "114932.787500", "114934.787500", "114936.787500", "114938.787500", "114940.787500", "114942.787500", "114944.787500", "114946.787500", "114948.787500", "114950.787500", "114952.787500", "114954.787500", "114956.787500", "114958.787500", "115000.787500", "115002.787500", "115004.787500", "115006.787500", "115008.787500", "115010.787500", "115012.787500", "115014.787500", "115016.787500", "115018.787500", "115020.787500", "115022.787500", "115024.787500", "115026.787500", "115028.787500", "115030.787500", "115032.787500", "115034.787500", "115036.787500", "115038.787500", "115040.787500", "115042.787500", "115044.787500", "115046.787500", "115048.787500", "115050.787500", "115052.787500", "115054.787500", "115056.787500", "115058.787500", "115100.787500", "115102.787500", "115104.787500", "115106.787500", "115108.787500", "115110.787500", "115112.787500", "115114.787500", "115116.787500", "115118.787500", "115120.787500", "115122.787500", "115124.787500", "115126.787500", "115128.787500", "115130.787500", "115132.787500", "115134.787500", "115136.787500", "115138.787500", "115140.787500", "115142.787500", "115144.787500", "115146.787500", "115148.787500", "115150.787500", "115152.787500", "115154.787500", "115156.787500", "115158.787500", "115200.787500", "115202.787500", "115204.787500", "115206.787500", "115208.787500", "115210.787500", "115212.787500", "115214.787500", "115216.787500", "115218.787500", "115220.787500", "115222.787500", "115224.787500", "115226.787500", "115228.787500", "115230.787500", "115232.787500", "115234.787500", "115236.787500", "115238.787500", "115240.787500", "115242.787500", "115244.787500", "115246.787500", "115248.787500", "115250.787500", "115252.787500", "115254.787500", "115256.787500", "115258.787500", "115300.787500", "115302.787500", "115304.787500", "115306.787500", "115308.787500", "115310.787500", "115312.787500", "115314.787500", "115316.787500", "115318.787500", "115320.787500", "115322.787500", "115324.787500", "115326.787500", "115328.787500", "115330.787500", "115332.787500", "115334.787500", "115336.787500", "115338.787500", "115340.787500", "115342.787500", "115344.787500", "115346.787500", "115348.787500", "115350.787500", "115352.787500", "115354.787500", "115356.787500", "115358.787500", "115400.787500", "115402.787500", "115404.787500", "115406.787500", "115408.787500", "115410.787500", "115412.787500", "115414.787500", "115416.787500", "115418.787500", "115420.787500", "115422.787500", "115424.787500", "115426.787500", "115428.787500", "115430.787500", "115432.787500", "115434.787500", "115436.787500", "115438.787500", "115440.787500", "115442.787500", "115444.787500", "115446.787500", "115448.787500", "115450.787500", "115452.787500", "115454.787500", "115456.787500", "115458.787500", "115500.787500", "115502.787500", "115504.787500", "115506.787500", "115508.787500", "115510.787500", "115512.787500", "115514.787500", "115516.787500", "115518.787500", "115520.787500", "115522.787500", "115524.787500", "115526.787500", "115528.787500", "115530.787500", "115532.787500", "115534.787500", "115536.787500", "115538.787500", "115540.787500", "115542.787500", "115544.787500", "115546.787500", "115548.787500", "115550.787500", "115552.787500", "115554.787500", "115556.787500", "115558.787500", "115600.787500", "115602.787500", "115604.787500", "115606.787500", "115608.787500", "115610.787500", "115612.787500", "115614.787500", "115616.787500", "115618.787500", "115620.787500", "115622.787500", "115624.787500", "115626.787500", "115628.787500", "115630.787500", "115632.787500", "115634.787500", "115636.787500", "115638.787500", "115640.787500", "115642.787500", "115644.787500", "115646.787500", "115648.787500", "115650.787500", "115652.787500", "115654.787500", "115656.787500", "115658.787500", "115700.787500", "115702.787500", "115704.787500", "115706.787500", "115708.787500", "115710.787500", "115712.787500", "115714.787500", "115716.787500", "115718.787500", "115720.787500", "115722.787500", "115724.787500", "115726.787500", "115728.787500", "115730.787500", "115732.787500", "115734.787500", "115736.787500", "115738.787500", "115740.787500", "115742.787500", "115744.787500", "115746.787500", "115748.787500", "115750.787500", "115752.787500", "115754.787500", "115756.787500", "115758.787500"],
      "ContentTime": ["114633.119000", "114633.122000", "114633.125000", "114633.127000", "114633.130000", "114633.132000", "114633.145000", "114633.147000", "114633.152000", "114633.154000", "114633.157000", "114633.159000", "114633.175000", "114633.178000", "114633.180000", "114633.183000", "114633.185000", "114633.187000", "114633.190000", "114633.192000", "114713.114000", "114713.117000", "114713.120000", "114713.122000", "114713.125000", "114713.127000", "114713.130000", "114713.132000", "114713.135000", "114713.137000", "114713.140000", "114713.142000", "114713.144000", "114713.147000", "114713.149000", "114713.152000", "114713.154000", "114713.157000", "114713.159000", "114713.162000", "114753.114000", "114753.117000", "114753.120000", "114753.122000", "114753.125000", "114753.127000", "114753.129000", "114753.132000", "114753.142000", "114753.144000", "114753.147000", "114753.149000", "114753.152000", "114753.154000", "114753.157000", "114753.159000", "114753.162000", "114753.164000", "114753.167000", "114753.169000", "114833.114000", "114833.117000", "114833.120000", "114833.122000", "114833.125000", "114833.127000", "114833.130000", "114833.132000", "114833.135000", "114833.137000", "114833.140000", "114833.142000", "114833.145000", "114833.147000", "114833.149000", "114833.152000", "114833.154000", "114833.157000", "114833.175000", "114833.178000", "114913.114000", "114913.117000", "114913.120000", "114913.122000", "114913.125000", "114913.127000", "114913.130000", "114913.132000", "114913.135000", "114913.137000", "114913.140000", "114913.142000", "114913.145000", "114913.147000", "114913.149000", "114913.152000", "114913.154000", "114913.157000", "114913.159000", "114913.162000", "114953.114000", "114953.118000", "114953.120000", "114953.123000", "114953.125000", "114953.128000", "114953.130000", "114953.133000", "114953.135000", "114953.138000", "114953.140000", "114953.143000", "114953.145000", "114953.148000", "114953.150000", "114953.152000", "114953.155000", "114953.157000", "114953.160000", "114953.162000", "115033.114000", "115033.117000", "115033.120000", "115033.122000", "115033.125000", "115033.127000", "115033.130000", "115033.132000", "115033.135000", "115033.137000", "115033.140000", "115033.142000", "115033.145000", "115033.147000", "115033.149000", "115033.152000", "115033.154000", "115033.157000", "115033.159000", "115033.162000", "115113.114000", "115113.117000", "115113.120000", "115113.122000", "115113.125000", "115113.127000", "115113.130000", "115113.132000", "115113.135000", "115113.137000", "115113.140000", "115113.142000", "115113.144000", "115113.147000", "115113.149000", "115113.152000", "115113.154000", "115113.157000", "115113.160000", "115113.162000", "115153.114000", "115153.117000", "115153.120000", "115153.122000", "115153.125000", "115153.127000", "115153.129000", "115153.132000", "115153.134000", "115153.137000", "115153.139000", "115153.142000", "115153.144000", "115153.147000", "115153.149000", "115153.152000", "115153.154000", "115153.157000", "115153.160000", "115153.162000", "115213.114000", "115213.117000", "115213.120000", "115213.122000", "115213.125000", "115213.127000", "115213.130000", "115213.132000", "115213.135000", "115213.137000", "115253.114000", "115253.117000", "115253.120000", "115253.122000", "115253.125000", "115253.127000", "115253.130000", "115253.132000", "115253.135000", "115253.137000", "115253.140000", "115253.142000", "115253.144000", "115253.147000", "115253.149000", "115253.152000", "115253.154000", "115253.157000", "115253.251000", "115253.253000", "115333.115000", "115333.118000", "115333.121000", "115333.123000", "115333.126000", "115333.128000", "115333.130000", "115333.133000", "115333.135000", "115333.138000", "115333.140000", "115333.143000", "115333.145000", "115333.148000", "115333.150000", "115333.153000", "115333.155000", "115333.158000", "115333.160000", "115333.163000", "115413.114000", "115413.117000", "115413.120000", "115413.122000", "115413.125000", "115413.127000", "115413.130000", "115413.132000", "115413.135000", "115413.137000", "115413.139000", "115413.142000", "115413.144000", "115413.147000", "115413.149000", "115413.152000", "115413.154000", "115413.157000", "115413.159000", "115413.162000", "115453.114000", "115453.117000", "115453.120000", "115453.122000", "115453.125000", "115453.127000", "115453.130000", "115453.132000", "115453.135000", "115453.137000", "115453.140000", "115453.142000", "115453.145000", "115453.147000", "115453.149000", "115453.152000", "115453.154000", "115453.157000", "115453.186000", "115453.188000", "115533.114000", "115533.117000", "115533.120000", "115533.122000", "115533.125000", "115533.127000", "115533.145000", "115533.148000", "115533.150000", "115533.153000", "115533.155000", "115533.254000", "115533.256000", "115533.259000", "115533.261000", "115533.264000", "115533.266000", "115533.268000", "115533.271000", "115533.273000", "115613.114000", "115613.117000", "115613.120000", "115613.122000", "115613.125000", "115613.127000", "115613.129000", "115613.132000", "115613.134000", "115613.137000", "115613.139000", "115613.142000", "115613.144000", "115613.147000", "115613.149000", "115613.152000", "115613.154000", "115613.157000", "115613.159000", "115613.162000", "115653.114000", "115653.117000", "115653.120000", "115653.122000", "115653.125000", "115653.127000", "115653.130000", "115653.132000", "115653.135000", "115653.137000", "115653.140000", "115653.142000", "115653.145000", "115653.147000", "115653.149000", "115653.152000", "115653.154000", "115653.157000", "115653.159000", "115653.162000", "115733.115000", "115733.117000", "115733.120000", "115733.122000", "115733.125000", "115733.127000", "115733.130000", "115733.132000", "115733.135000", "115733.137000", "115733.140000", "115733.142000", "115733.145000", "115733.147000", "115733.150000", "115733.152000", "115733.155000", "115733.157000", "115733.176000", "115733.179000", "115800.464000", "115800.466000", "115800.469000", "115800.471000", "115800.474000", "115800.477000", "115800.479000", "115800.482000", "115800.484000", "115800.487000", "115800.489000", "115800.492000", "115800.497000", "115800.501000"],
      "InstanceCreationTime": ["114633.119000", "114633.122000", "114633.125000", "114633.127000", "114633.130000", "114633.132000", "114633.145000", "114633.147000", "114633.152000", "114633.154000", "114633.157000", "114633.159000", "114633.175000", "114633.178000", "114633.180000", "114633.183000", "114633.185000", "114633.187000", "114633.190000", "114633.192000", "114713.114000", "114713.117000", "114713.120000", "114713.122000", "114713.125000", "114713.127000", "114713.130000", "114713.132000", "114713.135000", "114713.137000", "114713.140000", "114713.142000", "114713.144000", "114713.147000", "114713.149000", "114713.152000", "114713.154000", "114713.157000", "114713.159000", "114713.162000", "114753.114000", "114753.117000", "114753.120000", "114753.122000", "114753.125000", "114753.127000", "114753.129000", "114753.132000", "114753.142000", "114753.144000", "114753.147000", "114753.149000", "114753.152000", "114753.154000", "114753.157000", "114753.159000", "114753.162000", "114753.164000", "114753.167000", "114753.169000", "114833.114000", "114833.117000", "114833.120000", "114833.122000", "114833.125000", "114833.127000", "114833.130000", "114833.132000", "114833.135000", "114833.137000", "114833.140000", "114833.142000", "114833.145000", "114833.147000", "114833.149000", "114833.152000", "114833.154000", "114833.157000", "114833.175000", "114833.178000", "114913.114000", "114913.117000", "114913.120000", "114913.122000", "114913.125000", "114913.127000", "114913.130000", "114913.132000", "114913.135000", "114913.137000", "114913.140000", "114913.142000", "114913.145000", "114913.147000", "114913.149000", "114913.152000", "114913.154000", "114913.157000", "114913.159000", "114913.162000", "114953.114000", "114953.118000", "114953.120000", "114953.123000", "114953.125000", "114953.128000", "114953.130000", "114953.133000", "114953.135000", "114953.138000", "114953.140000", "114953.143000", "114953.145000", "114953.148000", "114953.150000", "114953.152000", "114953.155000", "114953.157000", "114953.160000", "114953.162000", "115033.114000", "115033.117000", "115033.120000", "115033.122000", "115033.125000", "115033.127000", "115033.130000", "115033.132000", "115033.135000", "115033.137000", "115033.140000", "115033.142000", "115033.145000", "115033.147000", "115033.149000", "115033.152000", "115033.154000", "115033.157000", "115033.159000", "115033.162000", "115113.114000", "115113.117000", "115113.120000", "115113.122000", "115113.125000", "115113.127000", "115113.130000", "115113.132000", "115113.135000", "115113.137000", "115113.140000", "115113.142000", "115113.144000", "115113.147000", "115113.149000", "115113.152000", "115113.154000", "115113.157000", "115113.160000", "115113.162000", "115153.114000", "115153.117000", "115153.120000", "115153.122000", "115153.125000", "115153.127000", "115153.129000", "115153.132000", "115153.134000", "115153.137000", "115153.139000", "115153.142000", "115153.144000", "115153.147000", "115153.149000", "115153.152000", "115153.154000", "115153.157000", "115153.160000", "115153.162000", "115213.114000", "115213.117000", "115213.120000", "115213.122000", "115213.125000", "115213.127000", "115213.130000", "115213.132000", "115213.135000", "115213.137000", "115253.114000", "115253.117000", "115253.120000", "115253.122000", "115253.125000", "115253.127000", "115253.130000", "115253.132000", "115253.135000", "115253.137000", "115253.140000", "115253.142000", "115253.144000", "115253.147000", "115253.149000", "115253.152000", "115253.154000", "115253.157000", "115253.251000", "115253.253000", "115333.115000", "115333.118000", "115333.121000", "115333.123000", "115333.126000", "115333.128000", "115333.130000", "115333.133000", "115333.135000", "115333.138000", "115333.140000", "115333.143000", "115333.145000", "115333.148000", "115333.150000", "115333.153000", "115333.155000", "115333.158000", "115333.160000", "115333.163000", "115413.114000", "115413.117000", "115413.120000", "115413.122000", "115413.125000", "115413.127000", "115413.130000", "115413.132000", "115413.135000", "115413.137000", "115413.139000", "115413.142000", "115413.144000", "115413.147000", "115413.149000", "115413.152000", "115413.154000", "115413.157000", "115413.159000", "115413.162000", "115453.114000", "115453.117000", "115453.120000", "115453.122000", "115453.125000", "115453.127000", "115453.130000", "115453.132000", "115453.135000", "115453.137000", "115453.140000", "115453.142000", "115453.145000", "115453.147000", "115453.149000", "115453.152000", "115453.154000", "115453.157000", "115453.186000", "115453.188000", "115533.114000", "115533.117000", "115533.120000", "115533.122000", "115533.125000", "115533.127000", "115533.145000", "115533.148000", "115533.150000", "115533.153000", "115533.155000", "115533.254000", "115533.256000", "115533.259000", "115533.261000", "115533.264000", "115533.266000", "115533.268000", "115533.271000", "115533.273000", "115613.114000", "115613.117000", "115613.120000", "115613.122000", "115613.125000", "115613.127000", "115613.129000", "115613.132000", "115613.134000", "115613.137000", "115613.139000", "115613.142000", "115613.144000", "115613.147000", "115613.149000", "115613.152000", "115613.154000", "115613.157000", "115613.159000", "115613.162000", "115653.114000", "115653.117000", "115653.120000", "115653.122000", "115653.125000", "115653.127000", "115653.130000", "115653.132000", "115653.135000", "115653.137000", "115653.140000", "115653.142000", "115653.145000", "115653.147000", "115653.149000", "115653.152000", "115653.154000", "115653.157000", "115653.159000", "115653.162000", "115733.115000", "115733.117000", "115733.120000", "115733.122000", "115733.125000", "115733.127000", "115733.130000", "115733.132000", "115733.135000", "115733.137000", "115733.140000", "115733.142000", "115733.145000", "115733.147000", "115733.150000", "115733.152000", "115733.155000", "115733.157000", "115733.176000", "115733.179000", "115800.464000", "115800.466000", "115800.469000", "115800.471000", "115800.474000", "115800.477000", "115800.479000", "115800.482000", "115800.484000", "115800.487000", "115800.489000", "115800.492000", "115800.497000", "115800.501000"],
      "InstanceNumber": [1, 2, 3, 4, 5, 6, 7, 8, 9, 10, 11, 12, 13, 14, 15, 16, 17, 18, 19, 20, 21, 22, 23, 24, 25, 26, 27, 28, 29, 30, 31, 32, 33, 34, 35, 36, 37, 38, 39, 40, 41, 42, 43, 44, 45, 46, 47, 48, 49, 50, 51, 52, 53, 54, 55, 56, 57, 58, 59, 60, 61, 62, 63, 64, 65, 66, 67, 68, 69, 70, 71, 72, 73, 74, 75, 76, 77, 78, 79, 80, 81, 82, 83, 84, 85, 86, 87, 88, 89, 90, 91, 92, 93, 94, 95, 96, 97, 98, 99, 100, 101, 102, 103, 104, 105, 106, 107, 108, 109, 110, 111, 112, 113, 114, 115, 116, 117, 118, 119, 120, 121, 122, 123, 124, 125, 126, 127, 128, 129, 130, 131, 132, 133, 134, 135, 136, 137, 138, 139, 140, 141, 142, 143, 144, 145, 146, 147, 148, 149, 150, 151, 152, 153, 154, 155, 156, 157, 158, 159, 160, 161, 162, 163, 164, 165, 166, 167, 168, 169, 170, 171, 172, 173, 174, 175, 176, 177, 178, 179, 180, 181, 182, 183, 184, 185, 186, 187, 188, 189, 190, 191, 192, 193, 194, 195, 196, 197, 198, 199, 200, 201, 202, 203, 204, 205, 206, 207, 208, 209, 210, 211, 212, 213, 214, 215, 216, 217, 218, 219, 220, 221, 222, 223, 224, 225, 226, 227, 228, 229, 230, 231, 232, 233, 234, 235, 236, 237, 238, 239, 240, 241, 242, 243, 244, 245, 246, 247, 248, 249, 250, 251, 252, 253, 254, 255, 256, 257, 258, 259, 260, 261, 262, 263, 264, 265, 266, 267, 268, 269, 270, 271, 272, 273, 274, 275, 276, 277, 278, 279, 280, 281, 282, 283, 284, 285, 286, 287, 288, 289, 290, 291, 292, 293, 294, 295, 296, 297, 298, 299, 300, 301, 302, 303, 304, 305, 306, 307, 308, 309, 310, 311, 312, 313, 314, 315, 316, 317, 318, 319, 320, 321, 322, 323, 324, 325, 326, 327, 328, 329, 330, 331, 332, 333, 334, 335, 336, 337, 338, 339, 340, 341, 342, 343, 344, 345, 346, 347, 348, 349, 350, 351, 352, 353, 354, 355, 356, 357, 358, 359, 360, 361, 362, 363, 364],
      "LargestImagePixelValue": [2683, 2675, 2628, 2623, 2636, 2592, 2588, 2605, 2657, 2664, 2673, 2679, 2680, 2658, 2657, 2649, 2666, 2673, 2673, 2675, 2672, 2685, 2702, 2707, 2677, 2657, 2653, 2668, 2636, 2653, 2658, 2685, 2671, 2686, 2639, 2665, 2668, 2667, 2668, 2662, 2646, 2648, 2671, 2678, 2686, 2679, 2681, 2685, 2677, 2682, 2689, 2700, 2691, 2680, 2661, 2691, 2676, 2682, 2678, 2695, 2687, 2692, 2738, 2730, 2709, 2689, 2672, 2685, 2665, 2690, 2681, 2703, 2695, 2720, 2705, 2695, 2673, 2667, 2676, 2677, 2702, 2701, 2708, 2700, 2700, 2652, 2682, 2666, 2676, 2671, 2683, 2665, 2682, 2680, 2708, 2695, 2706, 2685, 2680, 2666, 2641, 2619, 2582, 2571, 2577, 2596, 2593, 2627, 2657, 2659, 2641, 2656, 2655, 2657, 2673, 2685, 2685, 2702, 2700, 2685, 2672, 2688, 2692, 2684, 2691, 2640, 2680, 2642, 2655, 2660, 2669, 2663, 2676, 2669, 2674, 2692, 2684, 2683, 2682, 2691, 2682, 2674, 2647, 2658, 2667, 2663, 2659, 2661, 2676, 2671, 2663, 2675, 2694, 2698, 2682, 2697, 2700, 2684, 2642, 2622, 2639, 2655, 2673, 2665, 2681, 2663, 2667, 2637, 2639, 2662, 2640, 2661, 2650, 2659, 2652, 2655, 2667, 2668, 2654, 2658, 2668, 2674, 2925, 2573, 2559, 2577, 2543, 2550, 2569, 2580, 2562, 2558, 2570, 2564, 2540, 2534, 2555, 2572, 2578, 2554, 2553, 2569, 2586, 2595, 2577, 2559, 2580, 2579, 2595, 2607, 2622, 2622, 2588, 2574, 2589, 2610, 2625, 2646, 2669, 2676, 2658, 2625, 2613, 2623, 2637, 2637, 2607, 2614, 2616, 2623, 2612, 2603, 2614, 2629, 2650, 2661, 2638, 2629, 2625, 2605, 2595, 2618, 2587, 2593, 2554, 2560, 2575, 2591, 2601, 2598, 2578, 2557, 2554, 2560, 2569, 2570, 2593, 2604, 2591, 2584, 2594, 2572, 2546, 2549, 2541, 2533, 2550, 2564, 2586, 2579, 2591, 2598, 2593, 2576, 2582, 2577, 2565, 2554, 2546, 2548, 2552, 2555, 2563, 2562, 2548, 2554, 2567, 2575, 2553, 2546, 2545, 2560, 2585, 2588, 2580, 2567, 2571, 2565, 2556, 2565, 2576, 2578, 2612, 2601, 2584, 2573, 2553, 2544, 2549, 2565, 2582, 2603, 2618, 2609, 2597, 2578, 2561, 2558, 2546, 2545, 2560, 2554, 2572, 2585, 2562, 2569, 2566, 2567, 2577, 2582, 2591, 2594, 2598, 2575, 2560, 2570, 2575, 2587, 2601, 2621, 2610, 2598, 2577, 2566, 2564, 2567, 2576, 2570, 2581, 2613, 2614, 2588, 2560, 2558, 2555, 2552, 2559, 2566, 2597, 2585, 2576, 2558, 2578, 2571],
