{
  "AcquisitionMatrixPE": 64,
  "AcquisitionNumber": 1,
  "AcquisitionTime": "11:27:12.052500",
  "BandwidthPerPixelPhaseEncode": 25.202,
  "BaseResolution": 64,
  "BodyPartExamined": "BRAIN",
  "ConsistencyInfo": "N4_VE11C_LATEST_20160120",
  "ConversionSoftware": "dcm2niix",
  "ConversionSoftwareVersion": "v1.0.20201102",
  "DerivedVendorReportedEchoSpacing": 0.00061999,
  "DeviceSerialNumber": "45758",
  "DwellTime": 4.3e-06,
  "EchoTime": 0.03,
  "EchoTrainLength": 64,
  "EffectiveEchoSpacing": 0.00061999,
  "FlipAngle": 90,
  "ImageOrientationPatientDICOM": [0.999068, 0.0188917, -0.0388171, -0.0156946, 0.996584, 0.0810764],
  "ImageType": [
    "ORIGINAL",
    "PRIMARY",
    "M",
    "ND",
    "MOSAIC"
],
  "ImagingFrequency": 123.2,
  "InPlanePhaseEncodingDirectionDICOM": "ROW",
  "InstitutionAddress": "Street StreetNo,City /652E4B/,District,KR,ZIP",
  "InstitutionName": "DGMIF",
  "InstitutionalDepartmentName": "Department",
  "MRAcquisitionType": "2D",
  "MagneticFieldStrength": 3,
  "Manufacturer": "Siemens",
  "ManufacturersModelName": "Skyra",
  "Modality": "MR",
  "PartialFourier": 1,
  "PatientPosition": "HFS",
  "PercentPhaseFOV": 100,
  "PercentSampling": 100,
  "PhaseEncodingDirection": "i",
  "PhaseEncodingSteps": 64,
  "PhaseResolution": 1,
  "PixelBandwidth": 1815,
  "ProcedureStepDescription": "DGMIF^DGIST",
  "ProtocolName": "EPI_DGIST_1",
  "PulseSequenceDetails": "%SiemensSeq%\\ep2d_bold",
  "ReceiveCoilActiveElements": "HC1-7",
  "ReceiveCoilName": "HeadNeck_64",
  "ReconMatrixPE": 64,
  "RepetitionTime": 2,
  "SAR": 0.106406,
  "ScanOptions": "FS",
  "ScanningSequence": "EP",
  "SequenceName": "*epfid2d1_64",
  "SequenceVariant": "SK",
  "SeriesDescription": "EPI_DGIST_1",
  "SeriesNumber": 2,
  "ShimSetting": [-9722, -13660, -8516, 278, -392, -850, -578, -7],
  "SliceThickness": 4,
  "SliceTiming": [0.99, 0, 1.0575, 0.0675, 1.1225, 0.1325, 1.1875, 0.1975, 1.255, 0.265, 1.32, 0.33, 1.3875, 0.3975, 1.4525, 0.4625, 1.5175, 0.5275, 1.585, 0.595, 1.65, 0.66, 1.7175, 0.7275, 1.7825, 0.7925, 1.8475, 0.8575, 1.915, 0.925],
  "SoftwareVersions": "syngo MR E11",
  "SpacingBetweenSlices": 4.8,
  "StationName": "AWP45758",
  "TaskName": "asrt",
  "TotalReadoutTime": 0.0390594,
  "TxRefAmp": 302.604,
  "dcmmeta_affine": [
    [-2.9972031116485596, -0.04708383232355118, -0.19303743541240692, 96.54122161865234],
    [-0.056674957275390625, 2.989753007888794, 0.3858795762062073, -129.48770141601562],
    [-0.11645115166902542, -0.24322913587093353, 4.7805681228637695, -62.650360107421875],
    [0.0, 0.0, 0.0, 1.0]
],
  "dcmmeta_reorient_transform": [
    [0.0, -1.0, 0.0, 63.0],
    [1.0, 0.0, 0.0, 0.0],
    [0.0, 0.0, 1.0, 0.0],
    [0.0, 0.0, 0.0, 1.0]
],
  "dcmmeta_shape": [64, 64, 30, 514],
  "dcmmeta_slice_dim": 2,
  "dcmmeta_version": 0.6,
  "global": {
    "const": {
      "AcquisitionMatrix": [0, 64, 64, 0],
      "AngioFlag": "N",
      "BitsAllocated": 16,
      "BitsStored": 12,
      "BodyPartExamined": "BRAIN",
      "Columns": 384,
      "EchoNumbers": 1,
      "EchoTime": 30.0,
      "EchoTrainLength": 64,
      "FlipAngle": 90.0,
      "HighBit": 11,
      "ImageOrientationPatient": [0.99906773643505, 0.01889165297555, -0.0388170511812, -0.0156946105723, 0.99658431642206, 0.08107638041112],
      "ImagePositionPatient": [-565.59403726625, -546.2951932241, -98.258274271179],
      "ImageType": [
        "ORIGINAL",
        "PRIMARY",
        "M",
        "ND",
        "MOSAIC"
],
      "ImagedNucleus": "1H",
      "ImagingFrequency": 123.200201,
      "InPlanePhaseEncodingDirection": "ROW",
      "MRAcquisitionType": "2D",
      "MagneticFieldStrength": 3.0,
      "Manufacturer": "SIEMENS",
      "ManufacturerModelName": "Skyra",
      "Modality": "MR",
      "NumberOfAverages": 1.0,
      "NumberOfPhaseEncodingSteps": 64,
      "PercentPhaseFieldOfView": 100.0,
      "PercentSampling": 100.0,
      "PerformedProcedureStepStartTime": "111851.345000",
      "PhotometricInterpretation": "MONOCHROME2",
      "PixelBandwidth": 1815.0,
      "PixelRepresentation": 0,
      "PixelSpacing": [3.0, 3.0],
      "ProtocolName": "EPI_DGIST_1",
      "RepetitionTime": 2000.0,
      "Rows": 384,
      "SAR": 0.10640585238354,
      "SamplesPerPixel": 1,
      "ScanOptions": "FS",
      "ScanningSequence": "EP",
      "SequenceName": "*epfid2d1_64",
      "SequenceVariant": "SK",
      "SeriesDescription": "EPI_DGIST_1",
      "SeriesNumber": 2,
      "SeriesTime": "112810.080000",
      "SliceLocation": -76.688970429376,
      "SliceThickness": 4.0,
      "SmallestImagePixelValue": 0,
      "SoftwareVersions": "syngo MR E11",
      "SpacingBetweenSlices": 4.8000000289668,
      "SpecificCharacterSet": "ISO_IR 100",
      "StudyID": "1",
      "StudyTime": "111851.286000",
      "TransmitCoilName": "Body",
      "VariableFlipAngleFlag": "N",
      "WindowCenterWidthExplanation": "Algo1",
      "dBdt": 0.0},
    "slices": {}
  },
  "time": {
    "samples": {
      "AcquisitionNumber": [1, 2, 3, 4, 5, 6, 7, 8, 9, 10, 11, 12, 13, 14, 15, 16, 17, 18, 19, 20, 21, 22, 23, 24, 25, 26, 27, 28, 29, 30, 31, 32, 33, 34, 35, 36, 37, 38, 39, 40, 41, 42, 43, 44, 45, 46, 47, 48, 49, 50, 51, 52, 53, 54, 55, 56, 57, 58, 59, 60, 61, 62, 63, 64, 65, 66, 67, 68, 69, 70, 71, 72, 73, 74, 75, 76, 77, 78, 79, 80, 81, 82, 83, 84, 85, 86, 87, 88, 89, 90, 91, 92, 93, 94, 95, 96, 97, 98, 99, 100, 101, 102, 103, 104, 105, 106, 107, 108, 109, 110, 111, 112, 113, 114, 115, 116, 117, 118, 119, 120, 121, 122, 123, 124, 125, 126, 127, 128, 129, 130, 131, 132, 133, 134, 135, 136, 137, 138, 139, 140, 141, 142, 143, 144, 145, 146, 147, 148, 149, 150, 151, 152, 153, 154, 155, 156, 157, 158, 159, 160, 161, 162, 163, 164, 165, 166, 167, 168, 169, 170, 171, 172, 173, 174, 175, 176, 177, 178, 179, 180, 181, 182, 183, 184, 185, 186, 187, 188, 189, 190, 191, 192, 193, 194, 195, 196, 197, 198, 199, 200, 201, 202, 203, 204, 205, 206, 207, 208, 209, 210, 211, 212, 213, 214, 215, 216, 217, 218, 219, 220, 221, 222, 223, 224, 225, 226, 227, 228, 229, 230, 231, 232, 233, 234, 235, 236, 237, 238, 239, 240, 241, 242, 243, 244, 245, 246, 247, 248, 249, 250, 251, 252, 253, 254, 255, 256, 257, 258, 259, 260, 261, 262, 263, 264, 265, 266, 267, 268, 269, 270, 271, 272, 273, 274, 275, 276, 277, 278, 279, 280, 281, 282, 283, 284, 285, 286, 287, 288, 289, 290, 291, 292, 293, 294, 295, 296, 297, 298, 299, 300, 301, 302, 303, 304, 305, 306, 307, 308, 309, 310, 311, 312, 313, 314, 315, 316, 317, 318, 319, 320, 321, 322, 323, 324, 325, 326, 327, 328, 329, 330, 331, 332, 333, 334, 335, 336, 337, 338, 339, 340, 341, 342, 343, 344, 345, 346, 347, 348, 349, 350, 351, 352, 353, 354, 355, 356, 357, 358, 359, 360, 361, 362, 363, 364, 365, 366, 367, 368, 369, 370, 371, 372, 373, 374, 375, 376, 377, 378, 379, 380, 381, 382, 383, 384, 385, 386, 387, 388, 389, 390, 391, 392, 393, 394, 395, 396, 397, 398, 399, 400, 401, 402, 403, 404, 405, 406, 407, 408, 409, 410, 411, 412, 413, 414, 415, 416, 417, 418, 419, 420, 421, 422, 423, 424, 425, 426, 427, 428, 429, 430, 431, 432, 433, 434, 435, 436, 437, 438, 439, 440, 441, 442, 443, 444, 445, 446, 447, 448, 449, 450, 451, 452, 453, 454, 455, 456, 457, 458, 459, 460, 461, 462, 463, 464, 465, 466, 467, 468, 469, 470, 471, 472, 473, 474, 475, 476, 477, 478, 479, 480, 481, 482, 483, 484, 485, 486, 487, 488, 489, 490, 491, 492, 493, 494, 495, 496, 497, 498, 499, 500, 501, 502, 503, 504, 505, 506, 507, 508, 509, 510, 511, 512, 513, 514],
      "AcquisitionTime": ["112712.052500", "112714.052500", "112716.052500", "112718.052500", "112720.052500", "112722.052500", "112724.052500", "112726.052500", "112728.052500", "112730.052500", "112732.052500", "112734.052500", "112736.052500", "112738.052500", "112740.052500", "112742.052500", "112744.052500", "112746.052500", "112748.052500", "112750.052500", "112752.052500", "112754.052500", "112756.052500", "112758.052500", "112800.052500", "112802.052500", "112804.052500", "112806.052500", "112808.052500", "112810.052500", "112812.052500", "112814.052500", "112816.052500", "112818.052500", "112820.052500", "112822.052500", "112824.052500", "112826.052500", "112828.052500", "112830.052500", "112832.052500", "112834.052500", "112836.052500", "112838.052500", "112840.052500", "112842.052500", "112844.052500", "112846.052500", "112848.052500", "112850.052500", "112852.052500", "112854.052500", "112856.052500", "112858.052500", "112900.052500", "112902.052500", "112904.052500", "112906.052500", "112908.052500", "112910.052500", "112912.052500", "112914.052500", "112916.052500", "112918.052500", "112920.052500", "112922.052500", "112924.052500", "112926.052500", "112928.052500", "112930.052500", "112932.052500", "112934.052500", "112936.052500", "112938.052500", "112940.052500", "112942.052500", "112944.052500", "112946.052500", "112948.052500", "112950.052500", "112952.052500", "112954.052500", "112956.052500", "112958.052500", "113000.052500", "113002.052500", "113004.052500", "113006.052500", "113008.052500", "113010.052500", "113012.052500", "113014.052500", "113016.052500", "113018.052500", "113020.052500", "113022.052500", "113024.052500", "113026.052500", "113028.052500", "113030.052500", "113032.052500", "113034.052500", "113036.052500", "113038.052500", "113040.052500", "113042.052500", "113044.052500", "113046.052500", "113048.052500", "113050.052500", "113052.052500", "113054.052500", "113056.052500", "113058.052500", "113100.052500", "113102.052500", "113104.052500", "113106.052500", "113108.052500", "113110.052500", "113112.052500", "113114.052500", "113116.052500", "113118.052500", "113120.052500", "113122.052500", "113124.052500", "113126.052500", "113128.052500", "113130.052500", "113132.052500", "113134.052500", "113136.052500", "113138.052500", "113140.052500", "113142.052500", "113144.052500", "113146.052500", "113148.052500", "113150.052500", "113152.052500", "113154.052500", "113156.052500", "113158.052500", "113200.052500", "113202.052500", "113204.052500", "113206.052500", "113208.052500", "113210.052500", "113212.052500", "113214.052500", "113216.052500", "113218.052500", "113220.052500", "113222.052500", "113224.052500", "113226.052500", "113228.052500", "113230.052500", "113232.052500", "113234.052500", "113236.052500", "113238.052500", "113240.052500", "113242.052500", "113244.052500", "113246.052500", "113248.052500", "113250.052500", "113252.052500", "113254.052500", "113256.052500", "113258.052500", "113300.052500", "113302.052500", "113304.052500", "113306.052500", "113308.052500", "113310.052500", "113312.052500", "113314.052500", "113316.052500", "113318.052500", "113320.052500", "113322.052500", "113324.052500", "113326.052500", "113328.052500", "113330.052500", "113332.052500", "113334.052500", "113336.052500", "113338.052500", "113340.052500", "113342.052500", "113344.052500", "113346.052500", "113348.052500", "113350.052500", "113352.052500", "113354.052500", "113356.052500", "113358.052500", "113400.052500", "113402.052500", "113404.052500", "113406.052500", "113408.052500", "113410.052500", "113412.052500", "113414.052500", "113416.052500", "113418.052500", "113420.052500", "113422.052500", "113424.052500", "113426.052500", "113428.052500", "113430.052500", "113432.052500", "113434.052500", "113436.052500", "113438.052500", "113440.052500", "113442.052500", "113444.052500", "113446.052500", "113448.052500", "113450.052500", "113452.052500", "113454.052500", "113456.052500", "113458.052500", "113500.052500", "113502.052500", "113504.052500", "113506.052500", "113508.052500", "113510.052500", "113512.052500", "113514.052500", "113516.052500", "113518.052500", "113520.052500", "113522.052500", "113524.052500", "113526.052500", "113528.052500", "113530.052500", "113532.052500", "113534.052500", "113536.052500", "113538.052500", "113540.052500", "113542.052500", "113544.052500", "113546.052500", "113548.052500", "113550.052500", "113552.052500", "113554.052500", "113556.052500", "113558.052500", "113600.052500", "113602.052500", "113604.052500", "113606.052500", "113608.052500", "113610.052500", "113612.052500", "113614.052500", "113616.052500", "113618.052500", "113620.052500", "113622.052500", "113624.052500", "113626.052500", "113628.052500", "113630.052500", "113632.052500", "113634.052500", "113636.052500", "113638.052500", "113640.052500", "113642.052500", "113644.052500", "113646.052500", "113648.052500", "113650.052500", "113652.052500", "113654.052500", "113656.052500", "113658.052500", "113700.052500", "113702.052500", "113704.052500", "113706.052500", "113708.052500", "113710.052500", "113712.052500", "113714.052500", "113716.052500", "113718.052500", "113720.052500", "113722.052500", "113724.052500", "113726.052500", "113728.052500", "113730.052500", "113732.052500", "113734.052500", "113736.052500", "113738.052500", "113740.052500", "113742.052500", "113744.052500", "113746.052500", "113748.052500", "113750.052500", "113752.052500", "113754.052500", "113756.052500", "113758.052500", "113800.052500", "113802.052500", "113804.052500", "113806.052500", "113808.052500", "113810.052500", "113812.052500", "113814.052500", "113816.052500", "113818.052500", "113820.052500", "113822.052500", "113824.052500", "113826.052500", "113828.052500", "113830.052500", "113832.052500", "113834.052500", "113836.052500", "113838.052500", "113840.052500", "113842.052500", "113844.052500", "113846.052500", "113848.052500", "113850.052500", "113852.052500", "113854.052500", "113856.052500", "113858.052500", "113900.052500", "113902.052500", "113904.052500", "113906.052500", "113908.052500", "113910.052500", "113912.052500", "113914.052500", "113916.052500", "113918.052500", "113920.052500", "113922.052500", "113924.052500", "113926.052500", "113928.052500", "113930.052500", "113932.052500", "113934.052500", "113936.052500", "113938.052500", "113940.052500", "113942.052500", "113944.052500", "113946.052500", "113948.052500", "113950.052500", "113952.052500", "113954.052500", "113956.052500", "113958.052500", "114000.052500", "114002.052500", "114004.052500", "114006.052500", "114008.052500", "114010.052500", "114012.052500", "114014.052500", "114016.052500", "114018.052500", "114020.052500", "114022.052500", "114024.052500", "114026.052500", "114028.052500", "114030.052500", "114032.052500", "114034.052500", "114036.052500", "114038.052500", "114040.052500", "114042.052500", "114044.052500", "114046.052500", "114048.052500", "114050.052500", "114052.052500", "114054.052500", "114056.052500", "114058.052500", "114100.052500", "114102.052500", "114104.052500", "114106.052500", "114108.052500", "114110.052500", "114112.052500", "114114.052500", "114116.052500", "114118.052500", "114120.052500", "114122.052500", "114124.052500", "114126.052500", "114128.052500", "114130.052500", "114132.052500", "114134.052500", "114136.052500", "114138.052500", "114140.052500", "114142.052500", "114144.052500", "114146.052500", "114148.052500", "114150.052500", "114152.052500", "114154.052500", "114156.052500", "114158.052500", "114200.052500", "114202.052500", "114204.052500", "114206.052500", "114208.052500", "114210.052500", "114212.052500", "114214.052500", "114216.052500", "114218.052500", "114220.052500", "114222.052500", "114224.052500", "114226.052500", "114228.052500", "114230.052500", "114232.052500", "114234.052500", "114236.052500", "114238.052500", "114240.052500", "114242.052500", "114244.052500", "114246.052500", "114248.052500", "114250.052500", "114252.052500", "114254.052500", "114256.052500", "114258.052500", "114300.052500", "114302.052500", "114304.052500", "114306.052500", "114308.052500", "114310.052500", "114312.052500", "114314.052500", "114316.052500", "114318.052500", "114320.052500", "114322.052500", "114324.052500", "114326.052500", "114328.052500", "114330.052500", "114332.052500", "114334.052500", "114336.052500", "114338.052500", "114340.052500", "114342.052500", "114344.052500", "114346.052500", "114348.052500", "114350.052500", "114352.052500", "114354.052500", "114356.052500", "114358.052500", "114400.052500", "114402.052500", "114404.052500", "114406.052500", "114408.052500", "114410.052500", "114412.052500", "114414.052500", "114416.052500", "114418.052500"],
      "ContentTime": ["112810.083000", "112810.087000", "112810.089000", "112810.091000", "112810.094000", "112810.096000", "112810.099000", "112810.103000", "112810.106000", "112810.108000", "112810.111000", "112810.113000", "112810.116000", "112810.118000", "112810.121000", "112810.123000", "112810.126000", "112810.128000", "112810.131000", "112810.133000", "112810.136000", "112810.138000", "112810.141000", "112810.143000", "112810.146000", "112810.148000", "112810.151000", "112810.153000", "112810.156000", "112850.078000", "112850.081000", "112850.083000", "112850.086000", "112850.089000", "112850.091000", "112850.093000", "112850.096000", "112850.098000", "112850.101000", "112850.103000", "112850.106000", "112850.108000", "112850.111000", "112850.113000", "112850.116000", "112850.118000", "112850.121000", "112850.123000", "112850.126000", "112930.078000", "112930.081000", "112930.084000", "112930.086000", "112930.089000", "112930.091000", "112930.093000", "112930.096000", "112930.098000", "112930.101000", "112930.103000", "112930.106000", "112930.108000", "112930.111000", "112930.113000", "112930.116000", "112930.118000", "112930.121000", "112930.123000", "112930.125000", "113010.078000", "113010.081000", "113010.084000", "113010.086000", "113010.088000", "113010.091000", "113010.093000", "113010.096000", "113010.098000", "113010.101000", "113010.103000", "113010.106000", "113010.108000", "113010.111000", "113010.113000", "113010.115000", "113010.118000", "113010.120000", "113010.123000", "113010.125000", "113050.078000", "113050.081000", "113050.084000", "113050.086000", "113050.088000", "113050.091000", "113050.093000", "113050.096000", "113050.098000", "113050.101000", "113050.103000", "113050.106000", "113050.108000", "113050.111000", "113050.113000", "113050.115000", "113050.118000", "113050.120000", "113050.123000", "113050.125000", "113130.078000", "113130.081000", "113130.084000", "113130.086000", "113130.089000", "113130.091000", "113130.094000", "113130.096000", "113130.098000", "113130.101000", "113130.103000", "113130.106000", "113130.108000", "113130.111000", "113130.113000", "113130.116000", "113130.118000", "113130.121000", "113130.123000", "113130.126000", "113210.078000", "113210.081000", "113210.084000", "113210.086000", "113210.089000", "113210.091000", "113210.093000", "113210.096000", "113210.098000", "113210.101000", "113210.103000", "113210.106000", "113210.108000", "113210.111000", "113210.113000", "113210.116000", "113210.118000", "113210.120000", "113210.123000", "113210.125000", "113230.078000", "113230.081000", "113230.084000", "113230.086000", "113230.089000", "113230.091000", "113230.093000", "113230.096000", "113230.098000", "113230.101000", "113310.078000", "113310.081000", "113310.084000", "113310.086000", "113310.089000", "113310.091000", "113310.094000", "113310.096000", "113310.098000", "113310.101000", "113310.103000", "113310.106000", "113310.108000", "113310.111000", "113310.113000", "113310.116000", "113310.118000", "113310.121000", "113310.123000", "113310.126000", "113350.078000", "113350.081000", "113350.084000", "113350.086000", "113350.089000", "113350.091000", "113350.093000", "113350.096000", "113350.098000", "113350.101000", "113350.103000", "113350.106000", "113350.108000", "113350.111000", "113350.113000", "113350.116000", "113350.118000", "113350.121000", "113350.123000", "113350.126000", "113430.078000", "113430.081000", "113430.084000", "113430.086000", "113430.089000", "113430.091000", "113430.094000", "113430.098000", "113430.100000", "113430.103000", "113430.105000", "113430.108000", "113430.111000", "113430.113000", "113430.116000", "113430.118000", "113430.121000", "113430.123000", "113430.125000", "113430.128000", "113510.078000", "113510.081000", "113510.083000", "113510.086000", "113510.088000", "113510.091000", "113510.093000", "113510.096000", "113510.098000", "113510.101000", "113510.103000", "113510.106000", "113510.108000", "113510.111000", "113510.113000", "113510.116000", "113510.118000", "113510.121000", "113510.123000", "113510.126000", "113550.078000", "113550.081000", "113550.084000", "113550.086000", "113550.089000", "113550.091000", "113550.094000", "113550.096000", "113550.099000", "113550.101000", "113550.104000", "113550.106000", "113550.109000", "113550.111000", "113550.113000", "113550.116000", "113550.118000", "113550.121000", "113550.123000", "113550.126000", "113630.078000", "113630.081000", "113630.084000", "113630.086000", "113630.088000", "113630.091000", "113630.093000", "113630.096000", "113630.098000", "113630.101000", "113630.103000", "113630.106000", "113630.108000", "113630.111000", "113630.113000", "113630.116000", "113630.118000", "113630.121000", "113630.123000", "113630.126000", "113710.078000", "113710.081000", "113710.084000", "113710.086000", "113710.089000", "113710.091000", "113710.094000", "113710.096000", "113710.098000", "113710.101000", "113710.103000", "113710.106000", "113710.108000", "113710.111000", "113710.113000", "113710.116000", "113710.118000", "113710.121000", "113710.130000", "113710.132000", "113750.079000", "113750.081000", "113750.084000", "113750.086000", "113750.089000", "113750.091000", "113750.094000", "113750.096000", "113750.099000", "113750.101000", "113750.104000", "113750.106000", "113750.109000", "113750.111000", "113750.114000", "113750.116000", "113750.119000", "113750.121000", "113750.123000", "113750.126000", "113830.078000", "113830.081000", "113830.084000", "113830.086000", "113830.089000", "113830.091000", "113830.094000", "113830.096000", "113830.098000", "113830.101000", "113830.103000", "113830.106000", "113830.108000", "113830.111000", "113830.113000", "113830.116000", "113830.118000", "113830.121000", "113830.123000", "113830.125000", "113910.078000", "113910.081000", "113910.084000", "113910.086000", "113910.089000", "113910.091000", "113910.093000", "113910.096000", "113910.098000", "113910.101000", "113910.103000", "113910.106000", "113910.108000", "113910.111000", "113910.113000", "113910.116000", "113910.118000", "113910.121000", "113910.123000", "113910.126000", "113950.079000", "113950.081000", "113950.084000", "113950.086000", "113950.089000", "113950.091000", "113950.094000", "113950.096000", "113950.099000", "113950.101000", "113950.104000", "113950.106000", "113950.109000", "113950.111000", "113950.114000", "113950.116000", "113950.119000", "113950.121000", "113950.123000", "113950.126000", "114030.078000", "114030.081000", "114030.084000", "114030.086000", "114030.089000", "114030.091000", "114030.094000", "114030.096000", "114030.099000", "114030.101000", "114030.104000", "114030.106000", "114030.108000", "114030.111000", "114030.113000", "114030.116000", "114030.118000", "114030.121000", "114030.123000", "114030.126000", "114110.078000", "114110.081000", "114110.084000", "114110.086000", "114110.089000", "114110.091000", "114110.094000", "114110.096000", "114110.099000", "114110.101000", "114110.104000", "114110.106000", "114110.109000", "114110.111000", "114110.114000", "114110.116000", "114110.119000", "114110.121000", "114110.124000", "114110.126000", "114150.078000", "114150.081000", "114150.084000", "114150.086000", "114150.089000", "114150.091000", "114150.094000", "114150.096000", "114150.099000", "114150.101000", "114150.104000", "114150.106000", "114150.109000", "114150.111000", "114150.114000", "114150.116000", "114150.118000", "114150.121000", "114150.123000", "114150.126000", "114230.079000", "114230.081000", "114230.084000", "114230.086000", "114230.089000", "114230.091000", "114230.094000", "114230.096000", "114230.099000", "114230.101000", "114230.104000", "114230.106000", "114230.108000", "114230.111000", "114230.113000", "114230.116000", "114230.118000", "114230.121000", "114230.123000", "114230.126000", "114310.078000", "114310.081000", "114310.084000", "114310.086000", "114310.089000", "114310.091000", "114310.093000", "114310.096000", "114310.098000", "114310.101000", "114310.103000", "114310.106000", "114310.108000", "114310.111000", "114310.113000", "114310.116000", "114310.118000", "114310.121000", "114310.123000", "114310.126000", "114350.078000", "114350.081000", "114350.084000", "114350.086000", "114350.089000", "114350.091000", "114350.094000", "114350.096000", "114350.098000", "114350.101000", "114350.103000", "114350.106000", "114350.108000", "114350.111000", "114350.113000", "114350.116000", "114350.118000", "114350.121000", "114350.123000", "114350.126000", "114419.965000", "114419.967000", "114419.970000", "114419.973000", "114419.975000", "114419.978000", "114419.980000", "114419.983000", "114419.985000", "114419.988000", "114419.990000", "114419.993000", "114420.003000", "114420.006000", "114420.009000"],
