{
  "AcquisitionMatrixPE": 64,
  "AcquisitionNumber": 1,
  "AcquisitionTime": "09:36:45.545000",
  "BandwidthPerPixelPhaseEncode": 25.202,
  "BaseResolution": 64,
  "BodyPartExamined": "BRAIN",
  "ConsistencyInfo": "N4_VD13C_LATEST_20121124",
  "ConversionSoftware": "dcm2niix",
  "ConversionSoftwareVersion": "v1.0.20201102",
  "DerivedVendorReportedEchoSpacing": 0.00061999,
  "DeviceSerialNumber": "45758",
  "DwellTime": 4.3e-06,
  "EchoTime": 0.03,
  "EchoTrainLength": 64,
  "EffectiveEchoSpacing": 0.00061999,
  "FlipAngle": 90,
  "ImageOrientationPatientDICOM": [0.998721, 0.0276539, -0.0423286, -0.0278968, 0.999597, -0.00515844],
  "ImageType": [
    "ORIGINAL",
    "PRIMARY",
    "M",
    "ND",
    "MOSAIC"
],
  "ImagingFrequency": 123.2,
  "InPlanePhaseEncodingDirectionDICOM": "ROW",
  "InstitutionAddress": "Street StreetNo,City /652E4B/,District,KR,ZIP",
  "InstitutionName": "DGMIF",
  "InstitutionalDepartmentName": "Department",
  "MRAcquisitionType": "2D",
  "MagneticFieldStrength": 3,
  "Manufacturer": "Siemens",
  "ManufacturersModelName": "Skyra",
  "Modality": "MR",
  "PartialFourier": 1,
  "PatientPosition": "HFS",
  "PercentPhaseFOV": 100,
  "PercentSampling": 100,
  "PhaseEncodingDirection": "i",
  "PhaseEncodingSteps": 64,
  "PhaseResolution": 1,
  "PixelBandwidth": 1815,
  "ProcedureStepDescription": "DGMIF^DGIST_Jeon",
  "ProtocolName": "EPI_DGIST_1",
  "PulseSequenceDetails": "%SiemensSeq%\\ep2d_bold",
  "ReceiveCoilActiveElements": "HC1-7",
  "ReceiveCoilName": "HeadNeck_64",
  "ReconMatrixPE": 64,
  "RepetitionTime": 2,
  "SAR": 0.109237,
  "ScanOptions": "FS",
  "ScanningSequence": "EP",
  "SequenceName": "*epfid2d1_64",
  "SequenceVariant": "SK",
  "SeriesDescription": "EPI_DGIST_1",
  "SeriesNumber": 2,
  "ShimSetting": [-9769, -13682, -8124, 261, -363, -125, -421, -43],
  "SliceThickness": 4,
  "SliceTiming": [0.99, 0, 1.055, 0.065, 1.1225, 0.1325, 1.1875, 0.1975, 1.255, 0.265, 1.32, 0.33, 1.385, 0.395, 1.4525, 0.4625, 1.5175, 0.5275, 1.585, 0.595, 1.65, 0.66, 1.715, 0.725, 1.7825, 0.7925, 1.8475, 0.8575, 1.9125, 0.925],
  "SoftwareVersions": "syngo MR D13C",
  "SpacingBetweenSlices": 4.8,
  "StationName": "AWP45758",
  "TaskName": "asrt",
  "TotalReadoutTime": 0.0390594,
  "TxRefAmp": 310.945,
  "dcmmeta_affine": [
    [-2.9961628913879395, -0.08369040489196777, -0.2024107277393341, 101.12109375],
    [-0.08296170830726624, 2.9987924098968506, -0.0303968396037817, -118.47887420654297],
    [-0.12698577344417572, 0.015475320629775524, 4.7956342697143555, -61.550880432128906],
    [0.0, 0.0, 0.0, 1.0]
],
  "dcmmeta_reorient_transform": [
    [0.0, -1.0, 0.0, 63.0],
    [1.0, 0.0, 0.0, 0.0],
    [0.0, 0.0, 1.0, 0.0],
    [0.0, 0.0, 0.0, 1.0]
],
  "dcmmeta_shape": [64, 64, 30, 514],
  "dcmmeta_slice_dim": 2,
  "dcmmeta_version": 0.6,
  "global": {
    "const": {
      "AcquisitionMatrix": [0, 64, 64, 0],
      "AngioFlag": "N",
      "BitsAllocated": 16,
      "BitsStored": 12,
      "BodyPartExamined": "BRAIN",
      "Columns": 384,
      "EchoNumbers": 1,
      "EchoTime": 30.0,
      "EchoTrainLength": 64,
      "FlipAngle": 90.0,
      "HighBit": 11,
      "ImageOrientationPatient": [0.99872095813289, 0.02765390288808, -0.0423285889344, -0.0278968028276, 0.99959749843898, -0.0051584403193],
      "ImagePositionPatient": [-561.8441897456, -563.52572752877, -37.782160480898],
      "ImageType": [
        "ORIGINAL",
        "PRIMARY",
        "M",
        "ND",
        "MOSAIC"
],
      "ImagedNucleus": "1H",
      "ImagingFrequency": 123.200124,
      "InPlanePhaseEncodingDirection": "ROW",
      "MRAcquisitionType": "2D",
      "MagneticFieldStrength": 3.0,
      "Manufacturer": "SIEMENS",
      "ManufacturerModelName": "Skyra",
      "Modality": "MR",
      "NumberOfAverages": 1.0,
      "NumberOfPhaseEncodingSteps": 64,
      "PercentPhaseFieldOfView": 100.0,
      "PercentSampling": 100.0,
      "PerformedProcedureStepStartTime": "093208.375000",
      "PhotometricInterpretation": "MONOCHROME2",
      "PixelBandwidth": 1815.0,
      "PixelRepresentation": 0,
      "PixelSpacing": [3.0, 3.0],
      "ProtocolName": "EPI_DGIST_1",
      "RepetitionTime": 2000.0,
      "Rows": 384,
      "SAR": 0.10923694608862,
      "SamplesPerPixel": 1,
      "ScanOptions": "FS",
      "ScanningSequence": "EP",
      "SequenceName": "*epfid2d1_64",
      "SequenceVariant": "SK",
      "SeriesDescription": "EPI_DGIST_1",
      "SeriesNumber": 2,
      "SeriesTime": "093736.814000",
      "SliceLocation": -65.00877178486,
      "SliceThickness": 4.0,
      "SmallestImagePixelValue": 0,
      "SoftwareVersions": "syngo MR D13C",
      "SpacingBetweenSlices": 4.7999999912279,
      "SpecificCharacterSet": "ISO_IR 100",
      "StudyID": "1",
      "StudyTime": "093208.224000",
      "TimeOfLastCalibration": ["123723.000000", "123723.000000"],
      "TransmitCoilName": "Body",
      "VariableFlipAngleFlag": "N",
      "WindowCenterWidthExplanation": "Algo1",
      "dBdt": 0.0},
    "slices": {}
  },
  "time": {
    "samples": {
      "AcquisitionNumber": [1, 2, 3, 4, 5, 6, 7, 8, 9, 10, 11, 12, 13, 14, 15, 16, 17, 18, 19, 20, 21, 22, 23, 24, 25, 26, 27, 28, 29, 30, 31, 32, 33, 34, 35, 36, 37, 38, 39, 40, 41, 42, 43, 44, 45, 46, 47, 48, 49, 50, 51, 52, 53, 54, 55, 56, 57, 58, 59, 60, 61, 62, 63, 64, 65, 66, 67, 68, 69, 70, 71, 72, 73, 74, 75, 76, 77, 78, 79, 80, 81, 82, 83, 84, 85, 86, 87, 88, 89, 90, 91, 92, 93, 94, 95, 96, 97, 98, 99, 100, 101, 102, 103, 104, 105, 106, 107, 108, 109, 110, 111, 112, 113, 114, 115, 116, 117, 118, 119, 120, 121, 122, 123, 124, 125, 126, 127, 128, 129, 130, 131, 132, 133, 134, 135, 136, 137, 138, 139, 140, 141, 142, 143, 144, 145, 146, 147, 148, 149, 150, 151, 152, 153, 154, 155, 156, 157, 158, 159, 160, 161, 162, 163, 164, 165, 166, 167, 168, 169, 170, 171, 172, 173, 174, 175, 176, 177, 178, 179, 180, 181, 182, 183, 184, 185, 186, 187, 188, 189, 190, 191, 192, 193, 194, 195, 196, 197, 198, 199, 200, 201, 202, 203, 204, 205, 206, 207, 208, 209, 210, 211, 212, 213, 214, 215, 216, 217, 218, 219, 220, 221, 222, 223, 224, 225, 226, 227, 228, 229, 230, 231, 232, 233, 234, 235, 236, 237, 238, 239, 240, 241, 242, 243, 244, 245, 246, 247, 248, 249, 250, 251, 252, 253, 254, 255, 256, 257, 258, 259, 260, 261, 262, 263, 264, 265, 266, 267, 268, 269, 270, 271, 272, 273, 274, 275, 276, 277, 278, 279, 280, 281, 282, 283, 284, 285, 286, 287, 288, 289, 290, 291, 292, 293, 294, 295, 296, 297, 298, 299, 300, 301, 302, 303, 304, 305, 306, 307, 308, 309, 310, 311, 312, 313, 314, 315, 316, 317, 318, 319, 320, 321, 322, 323, 324, 325, 326, 327, 328, 329, 330, 331, 332, 333, 334, 335, 336, 337, 338, 339, 340, 341, 342, 343, 344, 345, 346, 347, 348, 349, 350, 351, 352, 353, 354, 355, 356, 357, 358, 359, 360, 361, 362, 363, 364, 365, 366, 367, 368, 369, 370, 371, 372, 373, 374, 375, 376, 377, 378, 379, 380, 381, 382, 383, 384, 385, 386, 387, 388, 389, 390, 391, 392, 393, 394, 395, 396, 397, 398, 399, 400, 401, 402, 403, 404, 405, 406, 407, 408, 409, 410, 411, 412, 413, 414, 415, 416, 417, 418, 419, 420, 421, 422, 423, 424, 425, 426, 427, 428, 429, 430, 431, 432, 433, 434, 435, 436, 437, 438, 439, 440, 441, 442, 443, 444, 445, 446, 447, 448, 449, 450, 451, 452, 453, 454, 455, 456, 457, 458, 459, 460, 461, 462, 463, 464, 465, 466, 467, 468, 469, 470, 471, 472, 473, 474, 475, 476, 477, 478, 479, 480, 481, 482, 483, 484, 485, 486, 487, 488, 489, 490, 491, 492, 493, 494, 495, 496, 497, 498, 499, 500, 501, 502, 503, 504, 505, 506, 507, 508, 509, 510, 511, 512, 513, 514],
      "AcquisitionTime": ["093645.545000", "093647.545000", "093649.545000", "093651.545000", "093653.545000", "093655.545000", "093657.545000", "093659.545000", "093701.545000", "093703.545000", "093705.545000", "093707.545000", "093709.545000", "093711.545000", "093713.545000", "093715.545000", "093717.545000", "093719.545000", "093721.545000", "093723.545000", "093725.545000", "093727.545000", "093729.545000", "093731.545000", "093733.545000", "093735.545000", "093737.545000", "093739.545000", "093741.545000", "093743.545000", "093745.545000", "093747.545000", "093749.545000", "093751.545000", "093753.545000", "093755.545000", "093757.545000", "093759.545000", "093801.545000", "093803.545000", "093805.545000", "093807.545000", "093809.545000", "093811.545000", "093813.545000", "093815.545000", "093817.545000", "093819.545000", "093821.545000", "093823.545000", "093825.545000", "093827.545000", "093829.545000", "093831.545000", "093833.545000", "093835.545000", "093837.545000", "093839.545000", "093841.545000", "093843.545000", "093845.545000", "093847.545000", "093849.545000", "093851.545000", "093853.545000", "093855.545000", "093857.545000", "093859.545000", "093901.545000", "093903.545000", "093905.545000", "093907.545000", "093909.545000", "093911.545000", "093913.545000", "093915.545000", "093917.545000", "093919.545000", "093921.545000", "093923.545000", "093925.545000", "093927.545000", "093929.545000", "093931.545000", "093933.545000", "093935.545000", "093937.545000", "093939.545000", "093941.545000", "093943.545000", "093945.545000", "093947.545000", "093949.545000", "093951.545000", "093953.545000", "093955.545000", "093957.545000", "093959.545000", "094001.545000", "094003.545000", "094005.545000", "094007.545000", "094009.545000", "094011.545000", "094013.545000", "094015.545000", "094017.545000", "094019.545000", "094021.545000", "094023.545000", "094025.545000", "094027.545000", "094029.545000", "094031.545000", "094033.545000", "094035.545000", "094037.545000", "094039.545000", "094041.545000", "094043.545000", "094045.545000", "094047.545000", "094049.545000", "094051.545000", "094053.545000", "094055.545000", "094057.545000", "094059.545000", "094101.545000", "094103.545000", "094105.545000", "094107.545000", "094109.545000", "094111.545000", "094113.545000", "094115.545000", "094117.545000", "094119.545000", "094121.547500", "094123.547500", "094125.547500", "094127.547500", "094129.547500", "094131.547500", "094133.547500", "094135.547500", "094137.547500", "094139.547500", "094141.547500", "094143.547500", "094145.547500", "094147.547500", "094149.547500", "094151.547500", "094153.547500", "094155.547500", "094157.547500", "094159.547500", "094201.547500", "094203.547500", "094205.547500", "094207.547500", "094209.547500", "094211.547500", "094213.547500", "094215.547500", "094217.547500", "094219.547500", "094221.547500", "094223.547500", "094225.547500", "094227.547500", "094229.547500", "094231.547500", "094233.547500", "094235.547500", "094237.547500", "094239.547500", "094241.547500", "094243.547500", "094245.547500", "094247.547500", "094249.547500", "094251.547500", "094253.547500", "094255.547500", "094257.547500", "094259.547500", "094301.547500", "094303.547500", "094305.547500", "094307.547500", "094309.547500", "094311.547500", "094313.547500", "094315.547500", "094317.547500", "094319.547500", "094321.547500", "094323.547500", "094325.547500", "094327.547500", "094329.547500", "094331.547500", "094333.547500", "094335.547500", "094337.547500", "094339.547500", "094341.547500", "094343.547500", "094345.547500", "094347.547500", "094349.547500", "094351.547500", "094353.547500", "094355.547500", "094357.547500", "094359.547500", "094401.547500", "094403.547500", "094405.547500", "094407.547500", "094409.547500", "094411.547500", "094413.547500", "094415.547500", "094417.547500", "094419.547500", "094421.547500", "094423.547500", "094425.547500", "094427.547500", "094429.547500", "094431.547500", "094433.547500", "094435.547500", "094437.547500", "094439.547500", "094441.547500", "094443.547500", "094445.547500", "094447.547500", "094449.547500", "094451.547500", "094453.547500", "094455.547500", "094457.547500", "094459.547500", "094501.547500", "094503.547500", "094505.547500", "094507.547500", "094509.547500", "094511.547500", "094513.547500", "094515.547500", "094517.547500", "094519.547500", "094521.547500", "094523.547500", "094525.547500", "094527.547500", "094529.547500", "094531.547500", "094533.547500", "094535.547500", "094537.547500", "094539.547500", "094541.547500", "094543.547500", "094545.547500", "094547.547500", "094549.547500", "094551.547500", "094553.547500", "094555.547500", "094557.547500", "094559.547500", "094601.547500", "094603.547500", "094605.547500", "094607.547500", "094609.547500", "094611.547500", "094613.547500", "094615.547500", "094617.547500", "094619.547500", "094621.547500", "094623.547500", "094625.547500", "094627.547500", "094629.547500", "094631.547500", "094633.547500", "094635.547500", "094637.547500", "094639.547500", "094641.547500", "094643.547500", "094645.547500", "094647.547500", "094649.547500", "094651.547500", "094653.547500", "094655.547500", "094657.547500", "094659.547500", "094701.547500", "094703.547500", "094705.547500", "094707.547500", "094709.547500", "094711.547500", "094713.547500", "094715.547500", "094717.547500", "094719.547500", "094721.547500", "094723.547500", "094725.547500", "094727.547500", "094729.547500", "094731.547500", "094733.547500", "094735.547500", "094737.547500", "094739.547500", "094741.547500", "094743.547500", "094745.547500", "094747.547500", "094749.547500", "094751.547500", "094753.547500", "094755.547500", "094757.547500", "094759.547500", "094801.547500", "094803.547500", "094805.547500", "094807.547500", "094809.547500", "094811.547500", "094813.547500", "094815.547500", "094817.547500", "094819.547500", "094821.547500", "094823.547500", "094825.547500", "094827.547500", "094829.547500", "094831.547500", "094833.547500", "094835.547500", "094837.547500", "094839.547500", "094841.547500", "094843.547500", "094845.547500", "094847.547500", "094849.547500", "094851.547500", "094853.547500", "094855.547500", "094857.547500", "094859.547500", "094901.547500", "094903.547500", "094905.547500", "094907.547500", "094909.547500", "094911.547500", "094913.547500", "094915.547500", "094917.547500", "094919.547500", "094921.547500", "094923.547500", "094925.547500", "094927.547500", "094929.547500", "094931.547500", "094933.547500", "094935.547500", "094937.547500", "094939.547500", "094941.550000", "094943.550000", "094945.550000", "094947.550000", "094949.550000", "094951.550000", "094953.550000", "094955.550000", "094957.550000", "094959.550000", "095001.550000", "095003.550000", "095005.550000", "095007.550000", "095009.550000", "095011.550000", "095013.550000", "095015.550000", "095017.550000", "095019.550000", "095021.550000", "095023.550000", "095025.550000", "095027.550000", "095029.550000", "095031.550000", "095033.550000", "095035.550000", "095037.550000", "095039.550000", "095041.550000", "095043.550000", "095045.550000", "095047.550000", "095049.550000", "095051.550000", "095053.550000", "095055.550000", "095057.550000", "095059.550000", "095101.550000", "095103.550000", "095105.550000", "095107.550000", "095109.550000", "095111.550000", "095113.550000", "095115.550000", "095117.550000", "095119.550000", "095121.550000", "095123.550000", "095125.550000", "095127.550000", "095129.550000", "095131.550000", "095133.550000", "095135.550000", "095137.550000", "095139.550000", "095141.550000", "095143.550000", "095145.550000", "095147.550000", "095149.550000", "095151.550000", "095153.550000", "095155.550000", "095157.550000", "095159.550000", "095201.550000", "095203.550000", "095205.550000", "095207.550000", "095209.550000", "095211.550000", "095213.550000", "095215.550000", "095217.550000", "095219.550000", "095221.550000", "095223.550000", "095225.550000", "095227.550000", "095229.550000", "095231.550000", "095233.550000", "095235.550000", "095237.550000", "095239.550000", "095241.550000", "095243.550000", "095245.550000", "095247.550000", "095249.550000", "095251.550000", "095253.550000", "095255.550000", "095257.550000", "095259.550000", "095301.550000", "095303.550000", "095305.550000", "095307.550000", "095309.550000", "095311.550000", "095313.550000", "095315.550000", "095317.550000", "095319.550000", "095321.550000", "095323.550000", "095325.550000", "095327.550000", "095329.550000", "095331.550000", "095333.550000", "095335.550000", "095337.550000", "095339.550000", "095341.550000", "095343.550000", "095345.550000", "095347.550000", "095349.550000", "095351.550000"],
      "ContentTime": ["093736.818000", "093736.821000", "093736.823000", "093736.825000", "093736.827000", "093736.829000", "093736.831000", "093736.833000", "093736.835000", "093736.837000", "093736.838000", "093736.840000", "093736.842000", "093736.844000", "093736.846000", "093736.848000", "093736.850000", "093736.852000", "093736.854000", "093736.856000", "093736.858000", "093736.860000", "093736.862000", "093736.873000", "093736.875000", "093816.812000", "093816.814000", "093816.816000", "093816.818000", "093816.820000", "093816.822000", "093816.824000", "093816.826000", "093816.828000", "093816.830000", "093816.831000", "093816.833000", "093816.835000", "093816.837000", "093816.839000", "093816.841000", "093816.843000", "093816.845000", "093816.847000", "093816.849000", "093856.812000", "093856.814000", "093856.816000", "093856.818000", "093856.820000", "093856.822000", "093856.824000", "093856.826000", "093856.828000", "093856.830000", "093856.832000", "093856.834000", "093856.836000", "093856.838000", "093856.839000", "093856.841000", "093856.843000", "093856.845000", "093856.847000", "093856.849000", "093936.812000", "093936.814000", "093936.816000", "093936.818000", "093936.820000", "093936.822000", "093936.824000", "093936.826000", "093936.828000", "093936.830000", "093936.832000", "093936.833000", "093936.835000", "093936.837000", "093936.839000", "093936.841000", "093936.843000", "093936.845000", "093936.847000", "093936.849000", "094016.812000", "094016.814000", "094016.816000", "094016.818000", "094016.820000", "094016.822000", "094016.824000", "094016.826000", "094016.828000", "094016.830000", "094016.831000", "094016.833000", "094016.835000", "094016.837000", "094016.839000", "094016.841000", "094016.843000", "094016.845000", "094016.847000", "094016.849000", "094056.812000", "094056.814000", "094056.816000", "094056.818000", "094056.820000", "094056.822000", "094056.824000", "094056.826000", "094056.828000", "094056.830000", "094056.832000", "094056.834000", "094056.836000", "094056.838000", "094056.839000", "094056.841000", "094056.843000", "094056.845000", "094056.847000", "094056.849000", "094136.812000", "094136.814000", "094136.816000", "094136.818000", "094136.820000", "094136.822000", "094136.827000", "094136.829000", "094136.830000", "094136.832000", "094136.834000", "094136.836000", "094136.838000", "094136.840000", "094136.842000", "094136.844000", "094136.846000", "094136.848000", "094136.850000", "094136.852000", "094216.812000", "094216.814000", "094216.816000", "094216.818000", "094216.820000", "094216.822000", "094216.824000", "094216.826000", "094216.828000", "094216.830000", "094216.832000", "094216.833000", "094216.835000", "094216.837000", "094216.839000", "094216.841000", "094216.843000", "094216.845000", "094216.847000", "094216.849000", "094256.812000", "094256.814000", "094256.816000", "094256.818000", "094256.820000", "094256.822000", "094256.824000", "094256.826000", "094256.828000", "094256.830000", "094256.832000", "094256.834000", "094256.836000", "094256.838000", "094256.840000", "094256.842000", "094256.844000", "094256.846000", "094256.847000", "094256.849000", "094336.812000", "094336.814000", "094336.816000", "094336.818000", "094336.820000", "094336.829000", "094336.831000", "094336.833000", "094336.835000", "094336.837000", "094336.839000", "094336.841000", "094336.843000", "094336.845000", "094336.847000", "094336.849000", "094336.851000", "094336.853000", "094336.855000", "094336.857000", "094416.812000", "094416.814000", "094416.816000", "094416.818000", "094416.820000", "094416.822000", "094416.824000", "094416.826000", "094416.828000", "094416.830000", "094416.832000", "094416.834000", "094416.836000", "094416.838000", "094416.840000", "094416.842000", "094416.844000", "094416.846000", "094416.848000", "094416.850000", "094456.812000", "094456.814000", "094456.816000", "094456.818000", "094456.820000", "094456.822000", "094456.824000", "094456.826000", "094456.837000", "094456.839000", "094456.841000", "094456.843000", "094456.845000", "094456.847000", "094456.849000", "094456.851000", "094456.853000", "094456.855000", "094456.856000", "094456.858000", "094536.812000", "094536.814000", "094536.816000", "094536.818000", "094536.820000", "094536.822000", "094536.824000", "094536.826000", "094536.828000", "094536.830000", "094536.832000", "094536.834000", "094536.836000", "094536.838000", "094536.840000", "094536.842000", "094536.844000", "094536.846000", "094536.847000", "094536.849000", "094616.812000", "094616.814000", "094616.816000", "094616.818000", "094616.820000", "094616.822000", "094616.824000", "094616.826000", "094616.828000", "094616.830000", "094616.832000", "094616.834000", "094616.836000", "094616.838000", "094616.840000", "094616.842000", "094616.844000", "094616.846000", "094616.847000", "094616.849000", "094656.812000", "094656.814000", "094656.816000", "094656.818000", "094656.820000", "094656.822000", "094656.824000", "094656.826000", "094656.828000", "094656.830000", "094656.832000", "094656.834000", "094656.836000", "094656.838000", "094656.840000", "094656.842000", "094656.844000", "094656.846000", "094656.848000", "094656.850000", "094736.812000", "094736.858000", "094736.860000", "094736.862000", "094736.864000", "094736.866000", "094736.869000", "094736.871000", "094736.873000", "094736.875000", "094736.877000", "094736.879000", "094736.881000", "094736.883000", "094736.885000", "094736.887000", "094736.889000", "094736.891000", "094736.893000", "094736.895000", "094816.812000", "094816.814000", "094816.816000", "094816.818000", "094816.820000", "094816.822000", "094816.824000", "094816.826000", "094816.828000", "094816.830000", "094816.832000", "094816.834000", "094816.836000", "094816.838000", "094816.840000", "094816.842000", "094816.844000", "094816.846000", "094816.847000", "094816.849000", "094856.812000", "094856.814000", "094856.816000", "094856.818000", "094856.820000", "094856.822000", "094856.824000", "094856.826000", "094856.828000", "094856.830000", "094856.832000", "094856.834000", "094856.836000", "094856.838000", "094856.840000", "094856.841000", "094856.844000", "094856.845000", "094856.847000", "094856.849000", "094936.812000", "094936.814000", "094936.816000", "094936.818000", "094936.820000", "094936.822000", "094936.824000", "094936.826000", "094936.828000", "094936.830000", "094936.832000", "094936.834000", "094936.836000", "094936.838000", "094936.840000", "094936.842000", "094936.844000", "094936.846000", "094936.848000", "094936.850000", "095016.811000", "095016.813000", "095016.815000", "095016.817000", "095016.819000", "095016.821000", "095016.823000", "095016.825000", "095016.827000", "095016.829000", "095016.831000", "095016.833000", "095016.835000", "095016.836000", "095016.838000", "095016.840000", "095016.842000", "095016.844000", "095016.846000", "095016.849000", "095056.812000", "095056.814000", "095056.816000", "095056.818000", "095056.820000", "095056.822000", "095056.824000", "095056.826000", "095056.828000", "095056.830000", "095056.832000", "095056.834000", "095056.836000", "095056.837000", "095056.839000", "095056.841000", "095056.843000", "095056.845000", "095056.847000", "095056.849000", "095136.812000", "095136.814000", "095136.816000", "095136.818000", "095136.820000", "095136.822000", "095136.824000", "095136.826000", "095136.828000", "095136.830000", "095136.832000", "095136.834000", "095136.836000", "095136.837000", "095136.839000", "095136.841000", "095136.843000", "095136.845000", "095136.847000", "095136.849000", "095216.812000", "095216.814000", "095216.816000", "095216.818000", "095216.820000", "095216.822000", "095216.824000", "095216.826000", "095216.828000", "095216.830000", "095216.832000", "095216.834000", "095216.836000", "095216.838000", "095216.840000", "095216.842000", "095216.844000", "095216.846000", "095216.847000", "095216.849000", "095256.812000", "095256.814000", "095256.816000", "095256.818000", "095256.820000", "095256.822000", "095256.824000", "095256.826000", "095256.828000", "095256.830000", "095256.832000", "095256.834000", "095256.836000", "095256.837000", "095256.839000", "095256.841000", "095256.843000", "095256.845000", "095256.847000", "095256.849000", "095336.812000", "095336.814000", "095336.816000", "095336.818000", "095336.837000", "095336.839000", "095336.841000", "095336.842000", "095336.844000", "095336.846000", "095336.861000", "095336.863000", "095336.865000", "095336.867000", "095336.870000", "095336.872000", "095336.874000", "095336.876000", "095336.878000", "095336.880000", "095352.907000", "095352.909000", "095352.911000", "095352.913000", "095352.915000", "095352.917000", "095352.919000", "095352.921000", "095352.923000"],
