{
  "AcquisitionMatrixPE": 64,
  "AcquisitionNumber": 1,
  "AcquisitionTime": "12:56:20.557500",
  "BandwidthPerPixelPhaseEncode": 25.202,
  "BaseResolution": 64,
  "BodyPartExamined": "BRAIN",
  "ConsistencyInfo": "N4_VE11C_LATEST_20160120",
  "ConversionSoftware": "dcm2niix",
  "ConversionSoftwareVersion": "v1.0.20201102",
  "DerivedVendorReportedEchoSpacing": 0.00061999,
  "DeviceSerialNumber": "45758",
  "DwellTime": 4.3e-06,
  "EchoTime": 0.03,
  "EchoTrainLength": 64,
  "EffectiveEchoSpacing": 0.00061999,
  "FlipAngle": 90,
  "ImageOrientationPatientDICOM": [0.998223, 0.0249518, 0.0541074, -0.0331145, 0.987257, 0.155649],
  "ImageType": [
    "ORIGINAL",
    "PRIMARY",
    "M",
    "ND",
    "MOSAIC"
],
  "ImagingFrequency": 123.2,
  "InPlanePhaseEncodingDirectionDICOM": "ROW",
  "InstitutionAddress": "Street StreetNo,City /652E4B/,District,KR,ZIP",
  "InstitutionName": "DGMIF",
  "InstitutionalDepartmentName": "Department",
  "MRAcquisitionType": "2D",
  "MagneticFieldStrength": 3,
  "Manufacturer": "Siemens",
  "ManufacturersModelName": "Skyra",
  "Modality": "MR",
  "PartialFourier": 1,
  "PatientPosition": "HFS",
  "PercentPhaseFOV": 100,
  "PercentSampling": 100,
  "PhaseEncodingDirection": "i",
  "PhaseEncodingSteps": 64,
  "PhaseResolution": 1,
  "PixelBandwidth": 1815,
  "ProcedureStepDescription": "DGMIF^DGIST",
  "ProtocolName": "EPI_DGIST_2",
  "PulseSequenceDetails": "%SiemensSeq%\\ep2d_bold",
  "ReceiveCoilActiveElements": "HC1-7",
  "ReceiveCoilName": "HeadNeck_64",
  "ReconMatrixPE": 64,
  "RepetitionTime": 2,
  "SAR": 0.121043,
  "ScanOptions": "FS",
  "ScanningSequence": "EP",
  "SequenceName": "*epfid2d1_64",
  "SequenceVariant": "SK",
  "SeriesDescription": "EPI_DGIST_2",
  "SeriesNumber": 3,
  "ShimSetting": [-9719, -13772, -8300, 503, -225, -470, -877, -311],
  "SliceThickness": 4,
  "SliceTiming": [0.99, 0, 1.0575, 0.0675, 1.1225, 0.1325, 1.19, 0.2, 1.255, 0.265, 1.32, 0.33, 1.3875, 0.3975, 1.4525, 0.4625, 1.52, 0.53, 1.585, 0.595, 1.65, 0.66, 1.7175, 0.7275, 1.7825, 0.7925, 1.85, 0.86, 1.915, 0.925],
  "SoftwareVersions": "syngo MR E11",
  "SpacingBetweenSlices": 4.8,
  "StationName": "AWP45758",
  "TaskName": "asrt",
  "TotalReadoutTime": 0.0390594,
  "TxRefAmp": 314.194,
  "dcmmeta_affine": [
    [-2.9946699142456055, -0.0993434339761734, 0.23776386678218842, 94.29041290283203],
    [-0.07485548406839371, 2.9617714881896973, 0.7543896436691284, -127.46504211425781],
    [0.1623220592737198, -0.46694791316986084, 4.734381198883057, -51.24987030029297],
    [0.0, 0.0, 0.0, 1.0]
],
  "dcmmeta_reorient_transform": [
    [0.0, -1.0, 0.0, 63.0],
    [1.0, 0.0, 0.0, 0.0],
    [0.0, 0.0, 1.0, 0.0],
    [0.0, 0.0, 0.0, 1.0]
],
  "dcmmeta_shape": [64, 64, 30, 364],
  "dcmmeta_slice_dim": 2,
  "dcmmeta_version": 0.6,
  "global": {
    "const": {
      "AcquisitionMatrix": [0, 64, 64, 0],
      "AngioFlag": "N",
      "BitsAllocated": 16,
      "BitsStored": 12,
      "BodyPartExamined": "BRAIN",
      "Columns": 384,
      "EchoNumbers": 1,
      "EchoTime": 30.0,
      "EchoTrainLength": 64,
      "FlipAngle": 90.0,
      "HighBit": 11,
      "ImageOrientationPatient": [0.99822332196105, 0.02495182876754, 0.05410735379035, -0.0331144776799, 0.98725717286052, 0.1556493045389],
      "ImagePositionPatient": [-551.28401955084, -544.98688322878, -181.35078383656],
      "ImageType": [
        "ORIGINAL",
        "PRIMARY",
        "M",
        "ND",
        "MOSAIC"
],
      "ImagedNucleus": "1H",
      "ImagingFrequency": 123.200224,
      "InPlanePhaseEncodingDirection": "ROW",
      "MRAcquisitionType": "2D",
      "MagneticFieldStrength": 3.0,
      "Manufacturer": "SIEMENS",
      "ManufacturerModelName": "Skyra",
      "Modality": "MR",
      "NumberOfAverages": 1.0,
      "NumberOfPhaseEncodingSteps": 64,
      "PercentPhaseFieldOfView": 100.0,
      "PercentSampling": 100.0,
      "PerformedProcedureStepStartTime": "123329.432000",
      "PhotometricInterpretation": "MONOCHROME2",
      "PixelBandwidth": 1815.0,
      "PixelRepresentation": 0,
      "PixelSpacing": [3.0, 3.0],
      "ProtocolName": "EPI_DGIST_2",
      "RepetitionTime": 2000.0,
      "Rows": 384,
      "SAR": 0.12104298964799,
      "SamplesPerPixel": 1,
      "ScanOptions": "FS",
      "ScanningSequence": "EP",
      "SequenceName": "*epfid2d1_64",
      "SequenceVariant": "SK",
      "SeriesDescription": "EPI_DGIST_2",
      "SeriesNumber": 3,
      "SeriesTime": "125708.923000",
      "SliceLocation": -65.911638769634,
      "SliceThickness": 4.0,
      "SmallestImagePixelValue": 0,
      "SoftwareVersions": "syngo MR E11",
      "SpacingBetweenSlices": 4.8000000630891,
      "SpecificCharacterSet": "ISO_IR 100",
      "StudyID": "1",
      "StudyTime": "123329.358000",
      "TransmitCoilName": "Body",
      "VariableFlipAngleFlag": "N",
      "WindowCenterWidthExplanation": "Algo1",
      "dBdt": 0.0},
    "slices": {}
  },
  "time": {
    "samples": {
      "AcquisitionNumber": [1, 2, 3, 4, 5, 6, 7, 8, 9, 10, 11, 12, 13, 14, 15, 16, 17, 18, 19, 20, 21, 22, 23, 24, 25, 26, 27, 28, 29, 30, 31, 32, 33, 34, 35, 36, 37, 38, 39, 40, 41, 42, 43, 44, 45, 46, 47, 48, 49, 50, 51, 52, 53, 54, 55, 56, 57, 58, 59, 60, 61, 62, 63, 64, 65, 66, 67, 68, 69, 70, 71, 72, 73, 74, 75, 76, 77, 78, 79, 80, 81, 82, 83, 84, 85, 86, 87, 88, 89, 90, 91, 92, 93, 94, 95, 96, 97, 98, 99, 100, 101, 102, 103, 104, 105, 106, 107, 108, 109, 110, 111, 112, 113, 114, 115, 116, 117, 118, 119, 120, 121, 122, 123, 124, 125, 126, 127, 128, 129, 130, 131, 132, 133, 134, 135, 136, 137, 138, 139, 140, 141, 142, 143, 144, 145, 146, 147, 148, 149, 150, 151, 152, 153, 154, 155, 156, 157, 158, 159, 160, 161, 162, 163, 164, 165, 166, 167, 168, 169, 170, 171, 172, 173, 174, 175, 176, 177, 178, 179, 180, 181, 182, 183, 184, 185, 186, 187, 188, 189, 190, 191, 192, 193, 194, 195, 196, 197, 198, 199, 200, 201, 202, 203, 204, 205, 206, 207, 208, 209, 210, 211, 212, 213, 214, 215, 216, 217, 218, 219, 220, 221, 222, 223, 224, 225, 226, 227, 228, 229, 230, 231, 232, 233, 234, 235, 236, 237, 238, 239, 240, 241, 242, 243, 244, 245, 246, 247, 248, 249, 250, 251, 252, 253, 254, 255, 256, 257, 258, 259, 260, 261, 262, 263, 264, 265, 266, 267, 268, 269, 270, 271, 272, 273, 274, 275, 276, 277, 278, 279, 280, 281, 282, 283, 284, 285, 286, 287, 288, 289, 290, 291, 292, 293, 294, 295, 296, 297, 298, 299, 300, 301, 302, 303, 304, 305, 306, 307, 308, 309, 310, 311, 312, 313, 314, 315, 316, 317, 318, 319, 320, 321, 322, 323, 324, 325, 326, 327, 328, 329, 330, 331, 332, 333, 334, 335, 336, 337, 338, 339, 340, 341, 342, 343, 344, 345, 346, 347, 348, 349, 350, 351, 352, 353, 354, 355, 356, 357, 358, 359, 360, 361, 362, 363, 364],
      "AcquisitionTime": ["125620.557500", "125622.557500", "125624.557500", "125626.557500", "125628.557500", "125630.557500", "125632.557500", "125634.557500", "125636.557500", "125638.557500", "125640.557500", "125642.557500", "125644.557500", "125646.557500", "125648.557500", "125650.557500", "125652.557500", "125654.557500", "125656.557500", "125658.557500", "125700.557500", "125702.557500", "125704.557500", "125706.557500", "125708.557500", "125710.557500", "125712.557500", "125714.557500", "125716.557500", "125718.557500", "125720.557500", "125722.557500", "125724.557500", "125726.557500", "125728.557500", "125730.557500", "125732.557500", "125734.557500", "125736.557500", "125738.557500", "125740.557500", "125742.557500", "125744.557500", "125746.557500", "125748.557500", "125750.557500", "125752.557500", "125754.557500", "125756.557500", "125758.557500", "125800.557500", "125802.557500", "125804.557500", "125806.557500", "125808.557500", "125810.557500", "125812.557500", "125814.557500", "125816.557500", "125818.557500", "125820.557500", "125822.557500", "125824.557500", "125826.557500", "125828.557500", "125830.557500", "125832.557500", "125834.557500", "125836.557500", "125838.557500", "125840.557500", "125842.557500", "125844.557500", "125846.557500", "125848.557500", "125850.557500", "125852.557500", "125854.557500", "125856.557500", "125858.557500", "125900.557500", "125902.557500", "125904.557500", "125906.557500", "125908.557500", "125910.557500", "125912.557500", "125914.557500", "125916.557500", "125918.557500", "125920.557500", "125922.557500", "125924.557500", "125926.557500", "125928.557500", "125930.557500", "125932.557500", "125934.557500", "125936.557500", "125938.557500", "125940.557500", "125942.557500", "125944.557500", "125946.557500", "125948.557500", "125950.557500", "125952.557500", "125954.557500", "125956.557500", "125958.557500", "130000.557500", "130002.557500", "130004.557500", "130006.557500", "130008.557500", "130010.557500", "130012.557500", "130014.557500", "130016.557500", "130018.557500", "130020.557500", "130022.557500", "130024.557500", "130026.557500", "130028.557500", "130030.557500", "130032.557500", "130034.557500", "130036.557500", "130038.557500", "130040.557500", "130042.557500", "130044.557500", "130046.557500", "130048.557500", "130050.557500", "130052.557500", "130054.557500", "130056.557500", "130058.557500", "130100.557500", "130102.557500", "130104.557500", "130106.557500", "130108.557500", "130110.557500", "130112.557500", "130114.557500", "130116.557500", "130118.557500", "130120.557500", "130122.557500", "130124.557500", "130126.557500", "130128.557500", "130130.557500", "130132.557500", "130134.557500", "130136.557500", "130138.557500", "130140.557500", "130142.557500", "130144.557500", "130146.557500", "130148.557500", "130150.557500", "130152.557500", "130154.557500", "130156.557500", "130158.557500", "130200.557500", "130202.557500", "130204.557500", "130206.557500", "130208.557500", "130210.557500", "130212.557500", "130214.557500", "130216.557500", "130218.557500", "130220.557500", "130222.557500", "130224.557500", "130226.557500", "130228.557500", "130230.557500", "130232.557500", "130234.557500", "130236.557500", "130238.557500", "130240.557500", "130242.557500", "130244.557500", "130246.557500", "130248.557500", "130250.557500", "130252.557500", "130254.557500", "130256.557500", "130258.557500", "130300.557500", "130302.557500", "130304.557500", "130306.557500", "130308.557500", "130310.557500", "130312.557500", "130314.557500", "130316.557500", "130318.557500", "130320.557500", "130322.557500", "130324.557500", "130326.557500", "130328.557500", "130330.557500", "130332.557500", "130334.557500", "130336.557500", "130338.557500", "130340.557500", "130342.557500", "130344.557500", "130346.557500", "130348.557500", "130350.557500", "130352.557500", "130354.557500", "130356.557500", "130358.557500", "130400.557500", "130402.557500", "130404.557500", "130406.557500", "130408.557500", "130410.557500", "130412.557500", "130414.557500", "130416.557500", "130418.557500", "130420.557500", "130422.557500", "130424.557500", "130426.557500", "130428.557500", "130430.557500", "130432.557500", "130434.557500", "130436.557500", "130438.557500", "130440.557500", "130442.557500", "130444.557500", "130446.557500", "130448.557500", "130450.557500", "130452.557500", "130454.557500", "130456.557500", "130458.557500", "130500.557500", "130502.557500", "130504.557500", "130506.557500", "130508.557500", "130510.557500", "130512.557500", "130514.557500", "130516.557500", "130518.557500", "130520.557500", "130522.557500", "130524.557500", "130526.557500", "130528.557500", "130530.557500", "130532.557500", "130534.557500", "130536.557500", "130538.557500", "130540.557500", "130542.557500", "130544.557500", "130546.557500", "130548.557500", "130550.557500", "130552.557500", "130554.557500", "130556.557500", "130558.557500", "130600.557500", "130602.557500", "130604.557500", "130606.557500", "130608.557500", "130610.557500", "130612.557500", "130614.557500", "130616.557500", "130618.557500", "130620.557500", "130622.557500", "130624.557500", "130626.557500", "130628.557500", "130630.557500", "130632.557500", "130634.557500", "130636.557500", "130638.557500", "130640.557500", "130642.557500", "130644.557500", "130646.557500", "130648.557500", "130650.557500", "130652.557500", "130654.557500", "130656.557500", "130658.557500", "130700.557500", "130702.557500", "130704.557500", "130706.557500", "130708.557500", "130710.557500", "130712.557500", "130714.557500", "130716.557500", "130718.557500", "130720.557500", "130722.557500", "130724.557500", "130726.557500", "130728.557500", "130730.557500", "130732.557500", "130734.557500", "130736.557500", "130738.557500", "130740.557500", "130742.557500", "130744.557500", "130746.557500", "130748.557500", "130750.557500", "130752.557500", "130754.557500", "130756.557500", "130758.557500", "130800.557500", "130802.557500", "130804.557500", "130806.557500", "130808.557500", "130810.557500", "130812.557500", "130814.557500", "130816.557500", "130818.557500", "130820.557500", "130822.557500", "130824.557500", "130826.557500"],
      "ContentTime": ["125708.926000", "125708.930000", "125708.932000", "125708.939000", "125708.941000", "125708.943000", "125708.950000", "125708.953000", "125708.955000", "125708.958000", "125708.960000", "125708.962000", "125708.972000", "125708.974000", "125708.977000", "125708.979000", "125708.982000", "125708.984000", "125708.987000", "125708.989000", "125708.992000", "125708.994000", "125708.997000", "125709.000000", "125748.921000", "125748.924000", "125748.927000", "125748.929000", "125748.931000", "125748.934000", "125748.936000", "125748.939000", "125748.941000", "125748.944000", "125748.946000", "125748.949000", "125748.951000", "125748.954000", "125748.956000", "125748.959000", "125748.961000", "125748.964000", "125748.985000", "125748.988000", "125828.921000", "125828.934000", "125828.937000", "125828.939000", "125828.942000", "125828.944000", "125828.946000", "125828.949000", "125828.951000", "125828.954000", "125828.956000", "125828.959000", "125828.961000", "125828.964000", "125828.966000", "125828.968000", "125828.971000", "125828.973000", "125828.976000", "125828.978000", "125908.921000", "125908.924000", "125908.927000", "125908.929000", "125908.931000", "125908.934000", "125908.936000", "125908.939000", "125908.941000", "125908.944000", "125908.946000", "125908.948000", "125908.951000", "125908.953000", "125908.956000", "125908.958000", "125908.961000", "125908.963000", "125908.966000", "125908.968000", "125948.921000", "125948.924000", "125948.927000", "125948.929000", "125948.932000", "125948.934000", "125948.936000", "125948.939000", "125948.941000", "125948.944000", "125948.946000", "125948.949000", "125948.951000", "125948.953000", "125948.956000", "125948.958000", "125948.961000", "125948.963000", "125948.966000", "125948.968000", "130028.921000", "130028.924000", "130028.927000", "130028.929000", "130028.932000", "130028.934000", "130028.943000", "130028.945000", "130028.948000", "130028.950000", "130028.953000", "130028.955000", "130028.957000", "130028.960000", "130028.962000", "130028.965000", "130028.967000", "130028.970000", "130028.972000", "130028.974000", "130048.922000", "130048.924000", "130048.927000", "130048.929000", "130048.932000", "130048.934000", "130048.937000", "130048.939000", "130048.941000", "130048.944000", "130128.921000", "130128.924000", "130128.927000", "130128.929000", "130128.932000", "130128.934000", "130128.937000", "130128.939000", "130128.941000", "130128.944000", "130128.946000", "130128.949000", "130128.951000", "130128.954000", "130128.956000", "130128.959000", "130128.961000", "130128.963000", "130128.966000", "130128.968000", "130208.921000", "130208.924000", "130208.927000", "130208.929000", "130208.932000", "130208.934000", "130208.937000", "130208.939000", "130208.941000", "130208.944000", "130208.946000", "130208.949000", "130208.951000", "130208.954000", "130208.956000", "130208.959000", "130208.961000", "130208.964000", "130208.966000", "130208.968000", "130248.921000", "130248.924000", "130248.926000", "130248.929000", "130248.931000", "130248.934000", "130248.936000", "130248.939000", "130248.941000", "130248.944000", "130248.946000", "130248.948000", "130248.951000", "130248.953000", "130248.956000", "130248.958000", "130248.961000", "130248.963000", "130248.966000", "130248.968000", "130328.921000", "130328.924000", "130328.927000", "130328.929000", "130328.932000", "130328.934000", "130328.937000", "130328.939000", "130328.941000", "130328.944000", "130328.946000", "130328.949000", "130328.951000", "130328.954000", "130328.956000", "130328.959000", "130328.961000", "130328.964000", "130328.966000", "130328.969000", "130408.921000", "130408.924000", "130408.927000", "130408.929000", "130408.931000", "130408.934000", "130408.936000", "130408.939000", "130408.941000", "130408.944000", "130408.946000", "130408.949000", "130408.951000", "130408.954000", "130408.956000", "130408.958000", "130408.961000", "130408.963000", "130408.966000", "130408.968000", "130448.922000", "130448.924000", "130448.927000", "130448.929000", "130448.932000", "130448.934000", "130448.937000", "130448.939000", "130448.942000", "130448.944000", "130448.946000", "130448.949000", "130448.951000", "130448.954000", "130448.956000", "130448.959000", "130448.961000", "130448.964000", "130448.966000", "130448.969000", "130528.921000", "130528.924000", "130528.927000", "130528.929000", "130528.932000", "130528.934000", "130528.937000", "130528.939000", "130528.942000", "130528.944000", "130528.947000", "130528.949000", "130528.952000", "130528.954000", "130528.956000", "130528.959000", "130528.961000", "130528.964000", "130528.966000", "130528.969000", "130608.922000", "130608.924000", "130608.927000", "130608.929000", "130608.932000", "130608.934000", "130608.937000", "130608.939000", "130608.942000", "130608.944000", "130608.946000", "130608.949000", "130608.951000", "130608.954000", "130608.956000", "130608.959000", "130608.961000", "130608.964000", "130608.966000", "130608.969000", "130648.921000", "130648.924000", "130648.927000", "130648.929000", "130648.932000", "130648.934000", "130648.937000", "130648.939000", "130648.942000", "130648.944000", "130648.946000", "130648.949000", "130648.951000", "130648.954000", "130648.956000", "130648.959000", "130648.961000", "130648.964000", "130648.966000", "130648.968000", "130728.921000", "130728.924000", "130728.927000", "130728.929000", "130728.932000", "130728.934000", "130728.937000", "130728.939000", "130728.942000", "130728.944000", "130728.947000", "130728.949000", "130728.952000", "130728.954000", "130728.957000", "130728.959000", "130728.962000", "130728.964000", "130728.966000", "130728.969000", "130808.921000", "130808.924000", "130808.927000", "130808.929000", "130808.932000", "130808.934000", "130808.952000", "130808.954000", "130808.957000", "130808.959000", "130808.962000", "130808.964000", "130808.966000", "130808.969000", "130808.971000", "130808.974000", "130808.976000", "130808.979000", "130808.981000", "130808.984000", "130827.863000", "130827.866000", "130827.868000", "130827.871000", "130827.874000", "130827.876000", "130827.879000", "130827.881000", "130827.884000", "130827.886000"],
      "InstanceCreationTime": ["125708.926000", "125708.930000", "125708.932000", "125708.939000", "125708.941000", "125708.943000", "125708.950000", "125708.953000", "125708.955000", "125708.958000", "125708.960000", "125708.962000", "125708.972000", "125708.974000", "125708.977000", "125708.979000", "125708.982000", "125708.984000", "125708.987000", "125708.989000", "125708.992000", "125708.994000", "125708.997000", "125709.000000", "125748.921000", "125748.924000", "125748.927000", "125748.929000", "125748.931000", "125748.934000", "125748.936000", "125748.939000", "125748.941000", "125748.944000", "125748.946000", "125748.949000", "125748.951000", "125748.954000", "125748.956000", "125748.959000", "125748.961000", "125748.964000", "125748.985000", "125748.988000", "125828.921000", "125828.934000", "125828.937000", "125828.939000", "125828.942000", "125828.944000", "125828.946000", "125828.949000", "125828.951000", "125828.954000", "125828.956000", "125828.959000", "125828.961000", "125828.964000", "125828.966000", "125828.968000", "125828.971000", "125828.973000", "125828.976000", "125828.978000", "125908.921000", "125908.924000", "125908.927000", "125908.929000", "125908.931000", "125908.934000", "125908.936000", "125908.939000", "125908.941000", "125908.944000", "125908.946000", "125908.948000", "125908.951000", "125908.953000", "125908.956000", "125908.958000", "125908.961000", "125908.963000", "125908.966000", "125908.968000", "125948.921000", "125948.924000", "125948.927000", "125948.929000", "125948.932000", "125948.934000", "125948.936000", "125948.939000", "125948.941000", "125948.944000", "125948.946000", "125948.949000", "125948.951000", "125948.953000", "125948.956000", "125948.958000", "125948.961000", "125948.963000", "125948.966000", "125948.968000", "130028.921000", "130028.924000", "130028.927000", "130028.929000", "130028.932000", "130028.934000", "130028.943000", "130028.945000", "130028.948000", "130028.950000", "130028.953000", "130028.955000", "130028.957000", "130028.960000", "130028.962000", "130028.965000", "130028.967000", "130028.970000", "130028.972000", "130028.974000", "130048.922000", "130048.924000", "130048.927000", "130048.929000", "130048.932000", "130048.934000", "130048.937000", "130048.939000", "130048.941000", "130048.944000", "130128.921000", "130128.924000", "130128.927000", "130128.929000", "130128.932000", "130128.934000", "130128.937000", "130128.939000", "130128.941000", "130128.944000", "130128.946000", "130128.949000", "130128.951000", "130128.954000", "130128.956000", "130128.959000", "130128.961000", "130128.963000", "130128.966000", "130128.968000", "130208.921000", "130208.924000", "130208.927000", "130208.929000", "130208.932000", "130208.934000", "130208.937000", "130208.939000", "130208.941000", "130208.944000", "130208.946000", "130208.949000", "130208.951000", "130208.954000", "130208.956000", "130208.959000", "130208.961000", "130208.964000", "130208.966000", "130208.968000", "130248.921000", "130248.924000", "130248.926000", "130248.929000", "130248.931000", "130248.934000", "130248.936000", "130248.939000", "130248.941000", "130248.944000", "130248.946000", "130248.948000", "130248.951000", "130248.953000", "130248.956000", "130248.958000", "130248.961000", "130248.963000", "130248.966000", "130248.968000", "130328.921000", "130328.924000", "130328.927000", "130328.929000", "130328.932000", "130328.934000", "130328.937000", "130328.939000", "130328.941000", "130328.944000", "130328.946000", "130328.949000", "130328.951000", "130328.954000", "130328.956000", "130328.959000", "130328.961000", "130328.964000", "130328.966000", "130328.969000", "130408.921000", "130408.924000", "130408.927000", "130408.929000", "130408.931000", "130408.934000", "130408.936000", "130408.939000", "130408.941000", "130408.944000", "130408.946000", "130408.949000", "130408.951000", "130408.954000", "130408.956000", "130408.958000", "130408.961000", "130408.963000", "130408.966000", "130408.968000", "130448.922000", "130448.924000", "130448.927000", "130448.929000", "130448.932000", "130448.934000", "130448.937000", "130448.939000", "130448.942000", "130448.944000", "130448.946000", "130448.949000", "130448.951000", "130448.954000", "130448.956000", "130448.959000", "130448.961000", "130448.964000", "130448.966000", "130448.969000", "130528.921000", "130528.924000", "130528.927000", "130528.929000", "130528.932000", "130528.934000", "130528.937000", "130528.939000", "130528.942000", "130528.944000", "130528.947000", "130528.949000", "130528.952000", "130528.954000", "130528.956000", "130528.959000", "130528.961000", "130528.964000", "130528.966000", "130528.969000", "130608.922000", "130608.924000", "130608.927000", "130608.929000", "130608.932000", "130608.934000", "130608.937000", "130608.939000", "130608.942000", "130608.944000", "130608.946000", "130608.949000", "130608.951000", "130608.954000", "130608.956000", "130608.959000", "130608.961000", "130608.964000", "130608.966000", "130608.969000", "130648.921000", "130648.924000", "130648.927000", "130648.929000", "130648.932000", "130648.934000", "130648.937000", "130648.939000", "130648.942000", "130648.944000", "130648.946000", "130648.949000", "130648.951000", "130648.954000", "130648.956000", "130648.959000", "130648.961000", "130648.964000", "130648.966000", "130648.968000", "130728.921000", "130728.924000", "130728.927000", "130728.929000", "130728.932000", "130728.934000", "130728.937000", "130728.939000", "130728.942000", "130728.944000", "130728.947000", "130728.949000", "130728.952000", "130728.954000", "130728.957000", "130728.959000", "130728.962000", "130728.964000", "130728.966000", "130728.969000", "130808.921000", "130808.924000", "130808.927000", "130808.929000", "130808.932000", "130808.934000", "130808.952000", "130808.954000", "130808.957000", "130808.959000", "130808.962000", "130808.964000", "130808.966000", "130808.969000", "130808.971000", "130808.974000", "130808.976000", "130808.979000", "130808.981000", "130808.984000", "130827.863000", "130827.866000", "130827.868000", "130827.871000", "130827.874000", "130827.876000", "130827.879000", "130827.881000", "130827.884000", "130827.886000"],
      "InstanceNumber": [1, 2, 3, 4, 5, 6, 7, 8, 9, 10, 11, 12, 13, 14, 15, 16, 17, 18, 19, 20, 21, 22, 23, 24, 25, 26, 27, 28, 29, 30, 31, 32, 33, 34, 35, 36, 37, 38, 39, 40, 41, 42, 43, 44, 45, 46, 47, 48, 49, 50, 51, 52, 53, 54, 55, 56, 57, 58, 59, 60, 61, 62, 63, 64, 65, 66, 67, 68, 69, 70, 71, 72, 73, 74, 75, 76, 77, 78, 79, 80, 81, 82, 83, 84, 85, 86, 87, 88, 89, 90, 91, 92, 93, 94, 95, 96, 97, 98, 99, 100, 101, 102, 103, 104, 105, 106, 107, 108, 109, 110, 111, 112, 113, 114, 115, 116, 117, 118, 119, 120, 121, 122, 123, 124, 125, 126, 127, 128, 129, 130, 131, 132, 133, 134, 135, 136, 137, 138, 139, 140, 141, 142, 143, 144, 145, 146, 147, 148, 149, 150, 151, 152, 153, 154, 155, 156, 157, 158, 159, 160, 161, 162, 163, 164, 165, 166, 167, 168, 169, 170, 171, 172, 173, 174, 175, 176, 177, 178, 179, 180, 181, 182, 183, 184, 185, 186, 187, 188, 189, 190, 191, 192, 193, 194, 195, 196, 197, 198, 199, 200, 201, 202, 203, 204, 205, 206, 207, 208, 209, 210, 211, 212, 213, 214, 215, 216, 217, 218, 219, 220, 221, 222, 223, 224, 225, 226, 227, 228, 229, 230, 231, 232, 233, 234, 235, 236, 237, 238, 239, 240, 241, 242, 243, 244, 245, 246, 247, 248, 249, 250, 251, 252, 253, 254, 255, 256, 257, 258, 259, 260, 261, 262, 263, 264, 265, 266, 267, 268, 269, 270, 271, 272, 273, 274, 275, 276, 277, 278, 279, 280, 281, 282, 283, 284, 285, 286, 287, 288, 289, 290, 291, 292, 293, 294, 295, 296, 297, 298, 299, 300, 301, 302, 303, 304, 305, 306, 307, 308, 309, 310, 311, 312, 313, 314, 315, 316, 317, 318, 319, 320, 321, 322, 323, 324, 325, 326, 327, 328, 329, 330, 331, 332, 333, 334, 335, 336, 337, 338, 339, 340, 341, 342, 343, 344, 345, 346, 347, 348, 349, 350, 351, 352, 353, 354, 355, 356, 357, 358, 359, 360, 361, 362, 363, 364],
      "LargestImagePixelValue": [3058, 2988, 2951, 2952, 2945, 2934, 2948, 2931, 2921, 2919, 2924, 2915, 2912, 2913, 2919, 2916, 2921, 2930, 2929, 2945, 2927, 2931, 2926, 2931, 2944, 2920, 2940, 2940, 2929, 2945, 2906, 2934, 2935, 2965, 2975, 2936, 2920, 2914, 2914, 2923, 2918, 2924, 2927, 2932, 2955, 2942, 2947, 2936, 2941, 2938, 2927, 2945, 2942, 2932, 2936, 2928, 2939, 2934, 2932, 2956, 2946, 2979, 2953, 2924, 2918, 2920, 2903, 2906, 2913, 2904, 2912, 2904, 2918, 2933, 2941, 2922, 2918, 2933, 2919, 2919, 2909, 2917, 2933, 2933, 2941, 2947, 2919, 2913, 2931, 2947, 2949, 2929, 2928, 2930, 2935, 2923, 2918, 2926, 2911, 2899, 2903, 2900, 2908, 2909, 2908, 2902, 2908, 2909, 2912, 2925, 2902, 2905, 2911, 2907, 2914, 2903, 2910, 2905, 2910, 2914, 2956, 2941, 2986, 2970, 2937, 2937, 2927, 2902, 2926, 2915, 2928, 2925, 2911, 2897, 2904, 2902, 2894, 2901, 2905, 2922, 2923, 2938, 2934, 2937, 2941, 2933, 2943, 2929, 2940, 2945, 2939, 2943, 2926, 2918, 2917, 2910, 2910, 2914, 2917, 2910, 2897, 2902, 2962, 2902, 2891, 2883, 2916, 2905, 2902, 2892, 2905, 2900, 2901, 2905, 2887, 2900, 2892, 2923, 2913, 2902, 2902, 2887, 2913, 2917, 2925, 2920, 2891, 2912, 2918, 2893, 2908, 2904, 2894, 2910, 2897, 2889, 2897, 2912, 2898, 2900, 2898, 2906, 2895, 2912, 2903, 2895, 2911, 2907, 2899, 2913, 2920, 3053, 2875, 2881, 2917, 2930, 2931, 2950, 2950, 2964, 2956, 2936, 2939, 2931, 2931, 2931, 2923, 2902, 2903, 2929, 2909, 2892, 2886, 2886, 2883, 2883, 2888, 2892, 2883, 2895, 2885, 2891, 2921, 2894, 2911, 2926, 2899, 2919, 2917, 2907, 2924, 2907, 2905, 2934, 2903, 2903, 2898, 2917, 2998, 3031, 2891, 2879, 2907, 2904, 2905, 2901, 2909, 2905, 2898, 2910, 2927, 2956, 2993, 2937, 2989, 2925, 2945, 2922, 3023, 2993, 2988, 2990, 2958, 2947, 2938, 2962, 2963, 2954, 2976, 2946, 2928, 2932, 2920, 2952, 2944, 2942, 2938, 2927, 2923, 2927, 2927, 2944, 2960, 2946, 2947, 2952, 2952, 2943, 2938, 2937, 2929, 2947, 2929, 2930, 2939, 2946, 2959, 2962, 2956, 2945, 2941, 2931, 2941, 2932, 2953, 2944, 2969, 2951, 2952, 2955, 2957, 2970, 2964, 2982, 2987, 2937, 2942, 2928, 2954, 2938, 2959, 2960, 2947, 2935, 2967, 2949, 2961, 2970, 2969, 2962, 2949, 3005, 2970, 2956, 2975, 2981, 2970, 3015, 2969, 2984, 2981, 2992, 3018, 2979],
