{
  "AcquisitionMatrixPE": 64,
  "AcquisitionNumber": 1,
  "AcquisitionTime": "13:09:56.237500",
  "BandwidthPerPixelPhaseEncode": 25.202,
  "BaseResolution": 64,
  "BodyPartExamined": "BRAIN",
  "ConsistencyInfo": "N4_VE11C_LATEST_20160120",
  "ConversionSoftware": "dcm2niix",
  "ConversionSoftwareVersion": "v1.0.20201102",
  "DerivedVendorReportedEchoSpacing": 0.00061999,
  "DeviceSerialNumber": "45758",
  "DwellTime": 4.3e-06,
  "EchoTime": 0.03,
  "EchoTrainLength": 64,
  "EffectiveEchoSpacing": 0.00061999,
  "FlipAngle": 90,
  "ImageOrientationPatientDICOM": [0.998223, 0.0249518, 0.0541074, -0.0331145, 0.987257, 0.155649],
  "ImageType": [
    "ORIGINAL",
    "PRIMARY",
    "M",
    "ND",
    "MOSAIC"
],
  "ImagingFrequency": 123.2,
  "InPlanePhaseEncodingDirectionDICOM": "ROW",
  "InstitutionAddress": "Street StreetNo,City /652E4B/,District,KR,ZIP",
  "InstitutionName": "DGMIF",
  "InstitutionalDepartmentName": "Department",
  "MRAcquisitionType": "2D",
  "MagneticFieldStrength": 3,
  "Manufacturer": "Siemens",
  "ManufacturersModelName": "Skyra",
  "Modality": "MR",
  "PartialFourier": 1,
  "PatientPosition": "HFS",
  "PercentPhaseFOV": 100,
  "PercentSampling": 100,
  "PhaseEncodingDirection": "i",
  "PhaseEncodingSteps": 64,
  "PhaseResolution": 1,
  "PixelBandwidth": 1815,
  "ProcedureStepDescription": "DGMIF^DGIST",
  "ProtocolName": "EPI_DGIST_3",
  "PulseSequenceDetails": "%SiemensSeq%\\ep2d_bold",
  "ReceiveCoilActiveElements": "HC1-7",
  "ReceiveCoilName": "HeadNeck_64",
  "ReconMatrixPE": 64,
  "RepetitionTime": 2,
  "SAR": 0.121043,
  "ScanOptions": "FS",
  "ScanningSequence": "EP",
  "SequenceName": "*epfid2d1_64",
  "SequenceVariant": "SK",
  "SeriesDescription": "EPI_DGIST_3",
  "SeriesNumber": 4,
  "ShimSetting": [-9719, -13772, -8300, 503, -225, -470, -877, -311],
  "SliceThickness": 4,
  "SliceTiming": [0.99, 0, 1.0575, 0.0675, 1.1225, 0.1325, 1.1875, 0.2, 1.255, 0.265, 1.32, 0.33, 1.3875, 0.3975, 1.4525, 0.4625, 1.5175, 0.53, 1.585, 0.595, 1.65, 0.66, 1.7175, 0.7275, 1.7825, 0.7925, 1.8475, 0.86, 1.915, 0.925],
  "SoftwareVersions": "syngo MR E11",
  "SpacingBetweenSlices": 4.8,
  "StationName": "AWP45758",
  "TaskName": "asrt",
  "TotalReadoutTime": 0.0390594,
  "TxRefAmp": 314.194,
  "dcmmeta_affine": [
    [-2.9946699142456055, -0.0993434339761734, 0.23776386678218842, 94.29041290283203],
    [-0.07485548406839371, 2.9617714881896973, 0.7543896436691284, -127.46504211425781],
    [0.1623220592737198, -0.46694791316986084, 4.734381198883057, -51.24987030029297],
    [0.0, 0.0, 0.0, 1.0]
],
  "dcmmeta_reorient_transform": [
    [0.0, -1.0, 0.0, 63.0],
    [1.0, 0.0, 0.0, 0.0],
    [0.0, 0.0, 1.0, 0.0],
    [0.0, 0.0, 0.0, 1.0]
],
  "dcmmeta_shape": [64, 64, 30, 364],
  "dcmmeta_slice_dim": 2,
  "dcmmeta_version": 0.6,
  "global": {
    "const": {
      "AcquisitionMatrix": [0, 64, 64, 0],
      "AngioFlag": "N",
      "BitsAllocated": 16,
      "BitsStored": 12,
      "BodyPartExamined": "BRAIN",
      "Columns": 384,
      "EchoNumbers": 1,
      "EchoTime": 30.0,
      "EchoTrainLength": 64,
      "FlipAngle": 90.0,
      "HighBit": 11,
      "ImageOrientationPatient": [0.99822332196105, 0.02495182876754, 0.05410735379035, -0.0331144776799, 0.98725717286052, 0.1556493045389],
      "ImagePositionPatient": [-551.28401955084, -544.98688322878, -181.35078383656],
      "ImageType": [
        "ORIGINAL",
        "PRIMARY",
        "M",
        "ND",
        "MOSAIC"
],
      "ImagedNucleus": "1H",
      "ImagingFrequency": 123.200237,
      "InPlanePhaseEncodingDirection": "ROW",
      "MRAcquisitionType": "2D",
      "MagneticFieldStrength": 3.0,
      "Manufacturer": "SIEMENS",
      "ManufacturerModelName": "Skyra",
      "Modality": "MR",
      "NumberOfAverages": 1.0,
      "NumberOfPhaseEncodingSteps": 64,
      "PercentPhaseFieldOfView": 100.0,
      "PercentSampling": 100.0,
      "PerformedProcedureStepStartTime": "123329.432000",
      "PhotometricInterpretation": "MONOCHROME2",
      "PixelBandwidth": 1815.0,
      "PixelRepresentation": 0,
      "PixelSpacing": [3.0, 3.0],
      "ProtocolName": "EPI_DGIST_3",
      "RepetitionTime": 2000.0,
      "Rows": 384,
      "SAR": 0.12104298964799,
      "SamplesPerPixel": 1,
      "ScanOptions": "FS",
      "ScanningSequence": "EP",
      "SequenceName": "*epfid2d1_64",
      "SequenceVariant": "SK",
      "SeriesDescription": "EPI_DGIST_3",
      "SeriesNumber": 4,
      "SeriesTime": "131046.591000",
      "SliceLocation": -65.911638769634,
      "SliceThickness": 4.0,
      "SmallestImagePixelValue": 0,
      "SoftwareVersions": "syngo MR E11",
      "SpacingBetweenSlices": 4.8000000630891,
      "SpecificCharacterSet": "ISO_IR 100",
      "StudyID": "1",
      "StudyTime": "123329.358000",
      "TransmitCoilName": "Body",
      "VariableFlipAngleFlag": "N",
      "WindowCenterWidthExplanation": "Algo1",
      "dBdt": 0.0},
    "slices": {}
  },
  "time": {
    "samples": {
      "AcquisitionNumber": [1, 2, 3, 4, 5, 6, 7, 8, 9, 10, 11, 12, 13, 14, 15, 16, 17, 18, 19, 20, 21, 22, 23, 24, 25, 26, 27, 28, 29, 30, 31, 32, 33, 34, 35, 36, 37, 38, 39, 40, 41, 42, 43, 44, 45, 46, 47, 48, 49, 50, 51, 52, 53, 54, 55, 56, 57, 58, 59, 60, 61, 62, 63, 64, 65, 66, 67, 68, 69, 70, 71, 72, 73, 74, 75, 76, 77, 78, 79, 80, 81, 82, 83, 84, 85, 86, 87, 88, 89, 90, 91, 92, 93, 94, 95, 96, 97, 98, 99, 100, 101, 102, 103, 104, 105, 106, 107, 108, 109, 110, 111, 112, 113, 114, 115, 116, 117, 118, 119, 120, 121, 122, 123, 124, 125, 126, 127, 128, 129, 130, 131, 132, 133, 134, 135, 136, 137, 138, 139, 140, 141, 142, 143, 144, 145, 146, 147, 148, 149, 150, 151, 152, 153, 154, 155, 156, 157, 158, 159, 160, 161, 162, 163, 164, 165, 166, 167, 168, 169, 170, 171, 172, 173, 174, 175, 176, 177, 178, 179, 180, 181, 182, 183, 184, 185, 186, 187, 188, 189, 190, 191, 192, 193, 194, 195, 196, 197, 198, 199, 200, 201, 202, 203, 204, 205, 206, 207, 208, 209, 210, 211, 212, 213, 214, 215, 216, 217, 218, 219, 220, 221, 222, 223, 224, 225, 226, 227, 228, 229, 230, 231, 232, 233, 234, 235, 236, 237, 238, 239, 240, 241, 242, 243, 244, 245, 246, 247, 248, 249, 250, 251, 252, 253, 254, 255, 256, 257, 258, 259, 260, 261, 262, 263, 264, 265, 266, 267, 268, 269, 270, 271, 272, 273, 274, 275, 276, 277, 278, 279, 280, 281, 282, 283, 284, 285, 286, 287, 288, 289, 290, 291, 292, 293, 294, 295, 296, 297, 298, 299, 300, 301, 302, 303, 304, 305, 306, 307, 308, 309, 310, 311, 312, 313, 314, 315, 316, 317, 318, 319, 320, 321, 322, 323, 324, 325, 326, 327, 328, 329, 330, 331, 332, 333, 334, 335, 336, 337, 338, 339, 340, 341, 342, 343, 344, 345, 346, 347, 348, 349, 350, 351, 352, 353, 354, 355, 356, 357, 358, 359, 360, 361, 362, 363, 364],
      "AcquisitionTime": ["130956.237500", "130958.237500", "131000.237500", "131002.237500", "131004.237500", "131006.237500", "131008.237500", "131010.237500", "131012.237500", "131014.237500", "131016.237500", "131018.237500", "131020.237500", "131022.237500", "131024.237500", "131026.237500", "131028.237500", "131030.237500", "131032.237500", "131034.237500", "131036.237500", "131038.237500", "131040.237500", "131042.237500", "131044.237500", "131046.237500", "131048.237500", "131050.237500", "131052.237500", "131054.237500", "131056.237500", "131058.237500", "131100.237500", "131102.237500", "131104.237500", "131106.237500", "131108.237500", "131110.237500", "131112.237500", "131114.237500", "131116.237500", "131118.237500", "131120.237500", "131122.237500", "131124.237500", "131126.237500", "131128.237500", "131130.237500", "131132.237500", "131134.237500", "131136.237500", "131138.237500", "131140.237500", "131142.237500", "131144.237500", "131146.237500", "131148.237500", "131150.237500", "131152.237500", "131154.237500", "131156.237500", "131158.237500", "131200.237500", "131202.237500", "131204.237500", "131206.237500", "131208.237500", "131210.237500", "131212.237500", "131214.237500", "131216.237500", "131218.237500", "131220.237500", "131222.237500", "131224.237500", "131226.237500", "131228.237500", "131230.237500", "131232.237500", "131234.237500", "131236.237500", "131238.237500", "131240.237500", "131242.237500", "131244.237500", "131246.237500", "131248.237500", "131250.237500", "131252.237500", "131254.237500", "131256.237500", "131258.237500", "131300.237500", "131302.237500", "131304.237500", "131306.237500", "131308.237500", "131310.237500", "131312.237500", "131314.237500", "131316.237500", "131318.237500", "131320.237500", "131322.237500", "131324.237500", "131326.237500", "131328.237500", "131330.237500", "131332.237500", "131334.237500", "131336.237500", "131338.237500", "131340.237500", "131342.237500", "131344.237500", "131346.237500", "131348.237500", "131350.237500", "131352.237500", "131354.237500", "131356.237500", "131358.237500", "131400.237500", "131402.237500", "131404.237500", "131406.237500", "131408.237500", "131410.237500", "131412.237500", "131414.237500", "131416.237500", "131418.237500", "131420.237500", "131422.237500", "131424.237500", "131426.237500", "131428.237500", "131430.237500", "131432.237500", "131434.237500", "131436.237500", "131438.237500", "131440.237500", "131442.237500", "131444.237500", "131446.237500", "131448.237500", "131450.237500", "131452.237500", "131454.237500", "131456.237500", "131458.237500", "131500.237500", "131502.237500", "131504.237500", "131506.237500", "131508.237500", "131510.237500", "131512.237500", "131514.237500", "131516.237500", "131518.237500", "131520.237500", "131522.237500", "131524.237500", "131526.237500", "131528.237500", "131530.237500", "131532.237500", "131534.237500", "131536.237500", "131538.237500", "131540.237500", "131542.237500", "131544.237500", "131546.237500", "131548.237500", "131550.237500", "131552.237500", "131554.237500", "131556.237500", "131558.237500", "131600.237500", "131602.237500", "131604.237500", "131606.237500", "131608.237500", "131610.237500", "131612.237500", "131614.237500", "131616.237500", "131618.237500", "131620.237500", "131622.237500", "131624.237500", "131626.237500", "131628.237500", "131630.237500", "131632.237500", "131634.237500", "131636.237500", "131638.237500", "131640.237500", "131642.237500", "131644.237500", "131646.237500", "131648.237500", "131650.237500", "131652.237500", "131654.237500", "131656.237500", "131658.237500", "131700.237500", "131702.237500", "131704.237500", "131706.237500", "131708.237500", "131710.237500", "131712.237500", "131714.237500", "131716.237500", "131718.237500", "131720.237500", "131722.237500", "131724.237500", "131726.237500", "131728.237500", "131730.237500", "131732.237500", "131734.237500", "131736.237500", "131738.237500", "131740.237500", "131742.237500", "131744.237500", "131746.237500", "131748.237500", "131750.237500", "131752.237500", "131754.237500", "131756.237500", "131758.237500", "131800.237500", "131802.237500", "131804.237500", "131806.237500", "131808.237500", "131810.237500", "131812.237500", "131814.237500", "131816.237500", "131818.237500", "131820.237500", "131822.237500", "131824.237500", "131826.237500", "131828.237500", "131830.237500", "131832.237500", "131834.237500", "131836.237500", "131838.237500", "131840.237500", "131842.237500", "131844.237500", "131846.237500", "131848.237500", "131850.237500", "131852.237500", "131854.237500", "131856.237500", "131858.237500", "131900.237500", "131902.237500", "131904.237500", "131906.237500", "131908.237500", "131910.237500", "131912.237500", "131914.237500", "131916.237500", "131918.237500", "131920.237500", "131922.237500", "131924.237500", "131926.237500", "131928.237500", "131930.237500", "131932.237500", "131934.237500", "131936.237500", "131938.237500", "131940.237500", "131942.237500", "131944.237500", "131946.237500", "131948.237500", "131950.237500", "131952.237500", "131954.237500", "131956.237500", "131958.237500", "132000.237500", "132002.237500", "132004.237500", "132006.237500", "132008.237500", "132010.237500", "132012.237500", "132014.237500", "132016.237500", "132018.237500", "132020.237500", "132022.237500", "132024.237500", "132026.237500", "132028.237500", "132030.237500", "132032.237500", "132034.237500", "132036.237500", "132038.237500", "132040.237500", "132042.237500", "132044.237500", "132046.237500", "132048.237500", "132050.237500", "132052.237500", "132054.237500", "132056.237500", "132058.237500", "132100.237500", "132102.237500", "132104.237500", "132106.237500", "132108.237500", "132110.237500", "132112.237500", "132114.237500", "132116.237500", "132118.237500", "132120.237500", "132122.237500", "132124.237500", "132126.237500", "132128.237500", "132130.237500", "132132.237500", "132134.237500", "132136.237500", "132138.237500", "132140.237500", "132142.237500", "132144.237500", "132146.237500", "132148.237500", "132150.237500", "132152.237500", "132154.237500", "132156.237500", "132158.237500", "132200.237500", "132202.237500"],
      "ContentTime": ["131046.594000", "131046.598000", "131046.600000", "131046.602000", "131046.605000", "131046.607000", "131046.610000", "131046.612000", "131046.615000", "131046.617000", "131046.620000", "131046.622000", "131046.625000", "131046.627000", "131046.629000", "131046.639000", "131046.642000", "131046.644000", "131046.647000", "131046.649000", "131046.652000", "131046.654000", "131046.657000", "131046.659000", "131046.661000", "131106.589000", "131106.592000", "131106.595000", "131106.597000", "131106.599000", "131106.602000", "131106.605000", "131106.607000", "131106.610000", "131106.612000", "131146.589000", "131146.592000", "131146.595000", "131146.597000", "131146.600000", "131146.602000", "131146.604000", "131146.607000", "131146.610000", "131146.612000", "131146.615000", "131146.617000", "131146.620000", "131146.622000", "131146.624000", "131146.627000", "131146.629000", "131146.633000", "131146.635000", "131146.638000", "131226.589000", "131226.592000", "131226.595000", "131226.597000", "131226.599000", "131226.602000", "131226.604000", "131226.607000", "131226.609000", "131226.612000", "131226.614000", "131226.617000", "131226.619000", "131226.622000", "131226.624000", "131226.627000", "131226.629000", "131226.632000", "131226.634000", "131226.637000", "131306.589000", "131306.592000", "131306.595000", "131306.597000", "131306.600000", "131306.602000", "131306.605000", "131306.607000", "131306.610000", "131306.612000", "131306.615000", "131306.617000", "131306.620000", "131306.622000", "131306.624000", "131306.627000", "131306.629000", "131306.632000", "131306.634000", "131306.637000", "131346.589000", "131346.592000", "131346.595000", "131346.597000", "131346.599000", "131346.602000", "131346.604000", "131346.613000", "131346.616000", "131346.618000", "131346.621000", "131346.623000", "131346.626000", "131346.628000", "131346.630000", "131346.633000", "131346.635000", "131346.638000", "131346.640000", "131346.643000", "131426.590000", "131426.593000", "131426.596000", "131426.604000", "131426.607000", "131426.609000", "131426.612000", "131426.614000", "131426.616000", "131426.619000", "131426.621000", "131426.624000", "131426.626000", "131426.629000", "131426.631000", "131426.634000", "131426.637000", "131426.639000", "131426.642000", "131426.644000", "131506.590000", "131506.592000", "131506.595000", "131506.597000", "131506.600000", "131506.602000", "131506.605000", "131506.607000", "131506.610000", "131506.612000", "131506.614000", "131506.617000", "131506.619000", "131506.622000", "131506.624000", "131506.627000", "131506.629000", "131506.633000", "131506.635000", "131506.638000", "131546.590000", "131546.592000", "131546.595000", "131546.597000", "131546.600000", "131546.602000", "131546.605000", "131546.607000", "131546.609000", "131546.612000", "131546.614000", "131546.617000", "131546.619000", "131546.622000", "131546.624000", "131546.627000", "131546.629000", "131546.632000", "131546.634000", "131546.637000", "131626.591000", "131626.593000", "131626.596000", "131626.598000", "131626.601000", "131626.603000", "131626.606000", "131626.608000", "131626.611000", "131626.613000", "131626.616000", "131626.618000", "131626.621000", "131626.623000", "131626.626000", "131626.628000", "131626.631000", "131626.634000", "131626.637000", "131626.639000", "131706.589000", "131706.592000", "131706.595000", "131706.597000", "131706.600000", "131706.602000", "131706.605000", "131706.607000", "131706.609000", "131706.612000", "131706.614000", "131706.617000", "131706.619000", "131706.622000", "131706.624000", "131706.627000", "131706.629000", "131706.632000", "131706.634000", "131706.637000", "131746.589000", "131746.592000", "131746.595000", "131746.597000", "131746.599000", "131746.602000", "131746.604000", "131746.607000", "131746.609000", "131746.612000", "131746.614000", "131746.617000", "131746.619000", "131746.622000", "131746.624000", "131746.627000", "131746.629000", "131746.631000", "131746.634000", "131746.637000", "131826.589000", "131826.592000", "131826.595000", "131826.597000", "131826.600000", "131826.602000", "131826.605000", "131826.607000", "131826.609000", "131826.612000", "131826.614000", "131826.617000", "131826.619000", "131826.622000", "131826.624000", "131826.627000", "131826.629000", "131826.633000", "131826.635000", "131826.638000", "131906.590000", "131906.593000", "131906.596000", "131906.598000", "131906.601000", "131906.603000", "131906.606000", "131906.608000", "131906.611000", "131906.613000", "131906.616000", "131906.618000", "131906.621000", "131906.623000", "131906.626000", "131906.628000", "131906.631000", "131906.634000", "131906.637000", "131906.639000", "131946.589000", "131946.605000", "131946.608000", "131946.610000", "131946.613000", "131946.615000", "131946.617000", "131946.620000", "131946.622000", "131946.625000", "131946.627000", "131946.630000", "131946.632000", "131946.635000", "131946.637000", "131946.640000", "131946.642000", "131946.645000", "131946.647000", "131946.650000", "132026.590000", "132026.592000", "132026.595000", "132026.597000", "132026.600000", "132026.602000", "132026.605000", "132026.607000", "132026.610000", "132026.612000", "132026.615000", "132026.617000", "132026.620000", "132026.622000", "132026.625000", "132026.627000", "132026.630000", "132026.632000", "132026.635000", "132026.637000", "132106.591000", "132106.593000", "132106.596000", "132106.598000", "132106.601000", "132106.603000", "132106.606000", "132106.608000", "132106.611000", "132106.613000", "132106.616000", "132106.618000", "132106.621000", "132106.623000", "132106.625000", "132106.628000", "132106.630000", "132106.634000", "132106.636000", "132106.639000", "132146.589000", "132146.592000", "132146.595000", "132146.597000", "132146.600000", "132146.602000", "132146.605000", "132146.607000", "132146.610000", "132146.612000", "132146.615000", "132146.617000", "132146.620000", "132146.622000", "132146.624000", "132146.627000", "132146.629000", "132146.633000", "132146.635000", "132146.638000", "132204.053000", "132204.056000", "132204.058000", "132204.061000", "132204.064000", "132204.066000", "132204.069000", "132204.071000", "132204.074000"],
      "InstanceCreationTime": ["131046.594000", "131046.598000", "131046.600000", "131046.602000", "131046.605000", "131046.607000", "131046.610000", "131046.612000", "131046.615000", "131046.617000", "131046.620000", "131046.622000", "131046.625000", "131046.627000", "131046.629000", "131046.639000", "131046.642000", "131046.644000", "131046.647000", "131046.649000", "131046.652000", "131046.654000", "131046.657000", "131046.659000", "131046.661000", "131106.589000", "131106.592000", "131106.595000", "131106.597000", "131106.599000", "131106.602000", "131106.605000", "131106.607000", "131106.610000", "131106.612000", "131146.589000", "131146.592000", "131146.595000", "131146.597000", "131146.600000", "131146.602000", "131146.604000", "131146.607000", "131146.610000", "131146.612000", "131146.615000", "131146.617000", "131146.620000", "131146.622000", "131146.624000", "131146.627000", "131146.629000", "131146.633000", "131146.635000", "131146.638000", "131226.589000", "131226.592000", "131226.595000", "131226.597000", "131226.599000", "131226.602000", "131226.604000", "131226.607000", "131226.609000", "131226.612000", "131226.614000", "131226.617000", "131226.619000", "131226.622000", "131226.624000", "131226.627000", "131226.629000", "131226.632000", "131226.634000", "131226.637000", "131306.589000", "131306.592000", "131306.595000", "131306.597000", "131306.600000", "131306.602000", "131306.605000", "131306.607000", "131306.610000", "131306.612000", "131306.615000", "131306.617000", "131306.620000", "131306.622000", "131306.624000", "131306.627000", "131306.629000", "131306.632000", "131306.634000", "131306.637000", "131346.589000", "131346.592000", "131346.595000", "131346.597000", "131346.599000", "131346.602000", "131346.604000", "131346.613000", "131346.616000", "131346.618000", "131346.621000", "131346.623000", "131346.626000", "131346.628000", "131346.630000", "131346.633000", "131346.635000", "131346.638000", "131346.640000", "131346.643000", "131426.590000", "131426.593000", "131426.596000", "131426.604000", "131426.607000", "131426.609000", "131426.612000", "131426.614000", "131426.616000", "131426.619000", "131426.621000", "131426.624000", "131426.626000", "131426.629000", "131426.631000", "131426.634000", "131426.637000", "131426.639000", "131426.642000", "131426.644000", "131506.590000", "131506.592000", "131506.595000", "131506.597000", "131506.600000", "131506.602000", "131506.605000", "131506.607000", "131506.610000", "131506.612000", "131506.614000", "131506.617000", "131506.619000", "131506.622000", "131506.624000", "131506.627000", "131506.629000", "131506.633000", "131506.635000", "131506.638000", "131546.590000", "131546.592000", "131546.595000", "131546.597000", "131546.600000", "131546.602000", "131546.605000", "131546.607000", "131546.609000", "131546.612000", "131546.614000", "131546.617000", "131546.619000", "131546.622000", "131546.624000", "131546.627000", "131546.629000", "131546.632000", "131546.634000", "131546.637000", "131626.591000", "131626.593000", "131626.596000", "131626.598000", "131626.601000", "131626.603000", "131626.606000", "131626.608000", "131626.611000", "131626.613000", "131626.616000", "131626.618000", "131626.621000", "131626.623000", "131626.626000", "131626.628000", "131626.631000", "131626.634000", "131626.637000", "131626.639000", "131706.589000", "131706.592000", "131706.595000", "131706.597000", "131706.600000", "131706.602000", "131706.605000", "131706.607000", "131706.609000", "131706.612000", "131706.614000", "131706.617000", "131706.619000", "131706.622000", "131706.624000", "131706.627000", "131706.629000", "131706.632000", "131706.634000", "131706.637000", "131746.589000", "131746.592000", "131746.595000", "131746.597000", "131746.599000", "131746.602000", "131746.604000", "131746.607000", "131746.609000", "131746.612000", "131746.614000", "131746.617000", "131746.619000", "131746.622000", "131746.624000", "131746.627000", "131746.629000", "131746.631000", "131746.634000", "131746.637000", "131826.589000", "131826.592000", "131826.595000", "131826.597000", "131826.600000", "131826.602000", "131826.605000", "131826.607000", "131826.609000", "131826.612000", "131826.614000", "131826.617000", "131826.619000", "131826.622000", "131826.624000", "131826.627000", "131826.629000", "131826.633000", "131826.635000", "131826.638000", "131906.590000", "131906.593000", "131906.596000", "131906.598000", "131906.601000", "131906.603000", "131906.606000", "131906.608000", "131906.611000", "131906.613000", "131906.616000", "131906.618000", "131906.621000", "131906.623000", "131906.626000", "131906.628000", "131906.631000", "131906.634000", "131906.637000", "131906.639000", "131946.589000", "131946.605000", "131946.608000", "131946.610000", "131946.613000", "131946.615000", "131946.617000", "131946.620000", "131946.622000", "131946.625000", "131946.627000", "131946.630000", "131946.632000", "131946.635000", "131946.637000", "131946.640000", "131946.642000", "131946.645000", "131946.647000", "131946.650000", "132026.590000", "132026.592000", "132026.595000", "132026.597000", "132026.600000", "132026.602000", "132026.605000", "132026.607000", "132026.610000", "132026.612000", "132026.615000", "132026.617000", "132026.620000", "132026.622000", "132026.625000", "132026.627000", "132026.630000", "132026.632000", "132026.635000", "132026.637000", "132106.591000", "132106.593000", "132106.596000", "132106.598000", "132106.601000", "132106.603000", "132106.606000", "132106.608000", "132106.611000", "132106.613000", "132106.616000", "132106.618000", "132106.621000", "132106.623000", "132106.625000", "132106.628000", "132106.630000", "132106.634000", "132106.636000", "132106.639000", "132146.589000", "132146.592000", "132146.595000", "132146.597000", "132146.600000", "132146.602000", "132146.605000", "132146.607000", "132146.610000", "132146.612000", "132146.615000", "132146.617000", "132146.620000", "132146.622000", "132146.624000", "132146.627000", "132146.629000", "132146.633000", "132146.635000", "132146.638000", "132204.053000", "132204.056000", "132204.058000", "132204.061000", "132204.064000", "132204.066000", "132204.069000", "132204.071000", "132204.074000"],
      "InstanceNumber": [1, 2, 3, 4, 5, 6, 7, 8, 9, 10, 11, 12, 13, 14, 15, 16, 17, 18, 19, 20, 21, 22, 23, 24, 25, 26, 27, 28, 29, 30, 31, 32, 33, 34, 35, 36, 37, 38, 39, 40, 41, 42, 43, 44, 45, 46, 47, 48, 49, 50, 51, 52, 53, 54, 55, 56, 57, 58, 59, 60, 61, 62, 63, 64, 65, 66, 67, 68, 69, 70, 71, 72, 73, 74, 75, 76, 77, 78, 79, 80, 81, 82, 83, 84, 85, 86, 87, 88, 89, 90, 91, 92, 93, 94, 95, 96, 97, 98, 99, 100, 101, 102, 103, 104, 105, 106, 107, 108, 109, 110, 111, 112, 113, 114, 115, 116, 117, 118, 119, 120, 121, 122, 123, 124, 125, 126, 127, 128, 129, 130, 131, 132, 133, 134, 135, 136, 137, 138, 139, 140, 141, 142, 143, 144, 145, 146, 147, 148, 149, 150, 151, 152, 153, 154, 155, 156, 157, 158, 159, 160, 161, 162, 163, 164, 165, 166, 167, 168, 169, 170, 171, 172, 173, 174, 175, 176, 177, 178, 179, 180, 181, 182, 183, 184, 185, 186, 187, 188, 189, 190, 191, 192, 193, 194, 195, 196, 197, 198, 199, 200, 201, 202, 203, 204, 205, 206, 207, 208, 209, 210, 211, 212, 213, 214, 215, 216, 217, 218, 219, 220, 221, 222, 223, 224, 225, 226, 227, 228, 229, 230, 231, 232, 233, 234, 235, 236, 237, 238, 239, 240, 241, 242, 243, 244, 245, 246, 247, 248, 249, 250, 251, 252, 253, 254, 255, 256, 257, 258, 259, 260, 261, 262, 263, 264, 265, 266, 267, 268, 269, 270, 271, 272, 273, 274, 275, 276, 277, 278, 279, 280, 281, 282, 283, 284, 285, 286, 287, 288, 289, 290, 291, 292, 293, 294, 295, 296, 297, 298, 299, 300, 301, 302, 303, 304, 305, 306, 307, 308, 309, 310, 311, 312, 313, 314, 315, 316, 317, 318, 319, 320, 321, 322, 323, 324, 325, 326, 327, 328, 329, 330, 331, 332, 333, 334, 335, 336, 337, 338, 339, 340, 341, 342, 343, 344, 345, 346, 347, 348, 349, 350, 351, 352, 353, 354, 355, 356, 357, 358, 359, 360, 361, 362, 363, 364],
      "LargestImagePixelValue": [3056, 2995, 2988, 2958, 2948, 2969, 2974, 2959, 2996, 2994, 3009, 2987, 3015, 3056, 3030, 3032, 3083, 3091, 3141, 3143, 3084, 3152, 3188, 3170, 3176, 3182, 3186, 3192, 3208, 3181, 3183, 3090, 3091, 3073, 3193, 3130, 3146, 3117, 3143, 3175, 3165, 3138, 3165, 3195, 3197, 3213, 3208, 3178, 3176, 3211, 3188, 3171, 3201, 3220, 3196, 3205, 3223, 3199, 3213, 3209, 3187, 3104, 3137, 3091, 3097, 3085, 3112, 3085, 3119, 3104, 3143, 3121, 3145, 3159, 3176, 3122, 3136, 3153, 3165, 3165, 3175, 3138, 3164, 3174, 3172, 3188, 3206, 3198, 3226, 3209, 3208, 3182, 3194, 3151, 3175, 3174, 3170, 3196, 3162, 3201, 3207, 3218, 3209, 3231, 3217, 3224, 3207, 3233, 3233, 3259, 3233, 3237, 3248, 3238, 3236, 3241, 3249, 3234, 3239, 3236, 3243, 3253, 3229, 3207, 3224, 3220, 3225, 3233, 3248, 3251, 3242, 3244, 3234, 3247, 3255, 3238, 3246, 3247, 3245, 3240, 3241, 3253, 3257, 3251, 3255, 3261, 3256, 3248, 3247, 3246, 3243, 3246, 3251, 3244, 3250, 3242, 3243, 3238, 3240, 3242, 3251, 3254, 3245, 3254, 3264, 3259, 3254, 3252, 3246, 3253, 3255, 3240, 3239, 3239, 3247, 3251, 3249, 3241, 3234, 3239, 3279, 3262, 3218, 3212, 3225, 3235, 3224, 3233, 3238, 3243, 3240, 3246, 3240, 3245, 3248, 3247, 3235, 3246, 3240, 3239, 3249, 3256, 3244, 3248, 3248, 3248, 3245, 3236, 3231, 3235, 3245, 3211, 3189, 3238, 3305, 3212, 3238, 3245, 3246, 3243, 3246, 3250, 3255, 3256, 3267, 3255, 3258, 3254, 3263, 3254, 3249, 3255, 3249, 3250, 3240, 3248, 3260, 3254, 3258, 3249, 3244, 3258, 3230, 3300, 3238, 3243, 3244, 3237, 3247, 3251, 3245, 3258, 3259, 3261, 3265, 3258, 3262, 3258, 3262, 3251, 3254, 3258, 3247, 3252, 3249, 3247, 3242, 3241, 3237, 3237, 3232, 3314, 3224, 3205, 3155, 3156, 3185, 3227, 3235, 3258, 3259, 3244, 3241, 3242, 3251, 3249, 3259, 3261, 3262, 3264, 3250, 3244, 3242, 3256, 3245, 3259, 3259, 3261, 3254, 3258, 3260, 3277, 3253, 3236, 3244, 3245, 3249, 3257, 3251, 3262, 3253, 3257, 3260, 3260, 3259, 3256, 3255, 3253, 3250, 3254, 3260, 3252, 3251, 3253, 3256, 3260, 3257, 3257, 3253, 3252, 3222, 3234, 3268, 3264, 3265, 3260, 3254, 3250, 3239, 3239, 3234, 3235, 3246, 3251, 3262, 3249, 3259, 3262, 3254, 3244, 3247, 3256, 3226, 3249, 3245, 3241, 3254, 3235, 3238, 3241, 3252, 3260, 3238, 3251],
