{
  "AcquisitionMatrixPE": 64,
  "AcquisitionNumber": 1,
  "AcquisitionTime": "12:37:25.447500",
  "BandwidthPerPixelPhaseEncode": 25.202,
  "BaseResolution": 64,
  "BodyPartExamined": "BRAIN",
  "ConsistencyInfo": "N4_VE11C_LATEST_20160120",
  "ConversionSoftware": "dcm2niix",
  "ConversionSoftwareVersion": "v1.0.20201102",
  "DerivedVendorReportedEchoSpacing": 0.00061999,
  "DeviceSerialNumber": "45758",
  "DwellTime": 4.3e-06,
  "EchoTime": 0.03,
  "EchoTrainLength": 64,
  "EffectiveEchoSpacing": 0.00061999,
  "FlipAngle": 90,
  "ImageOrientationPatientDICOM": [0.998223, 0.0249518, 0.0541074, -0.0331145, 0.987257, 0.155649],
  "ImageType": [
    "ORIGINAL",
    "PRIMARY",
    "M",
    "ND",
    "MOSAIC"
],
  "ImagingFrequency": 123.2,
  "InPlanePhaseEncodingDirectionDICOM": "ROW",
  "InstitutionAddress": "Street StreetNo,City /652E4B/,District,KR,ZIP",
  "InstitutionName": "DGMIF",
  "InstitutionalDepartmentName": "Department",
  "MRAcquisitionType": "2D",
  "MagneticFieldStrength": 3,
  "Manufacturer": "Siemens",
  "ManufacturersModelName": "Skyra",
  "Modality": "MR",
  "PartialFourier": 1,
  "PatientPosition": "HFS",
  "PercentPhaseFOV": 100,
  "PercentSampling": 100,
  "PhaseEncodingDirection": "i",
  "PhaseEncodingSteps": 64,
  "PhaseResolution": 1,
  "PixelBandwidth": 1815,
  "ProcedureStepDescription": "DGMIF^DGIST",
  "ProtocolName": "EPI_DGIST_1",
  "PulseSequenceDetails": "%SiemensSeq%\\ep2d_bold",
  "ReceiveCoilActiveElements": "HC1-7",
  "ReceiveCoilName": "HeadNeck_64",
  "ReconMatrixPE": 64,
  "RepetitionTime": 2,
  "SAR": 0.121043,
  "ScanOptions": "FS",
  "ScanningSequence": "EP",
  "SequenceName": "*epfid2d1_64",
  "SequenceVariant": "SK",
  "SeriesDescription": "EPI_DGIST_1",
  "SeriesNumber": 2,
  "ShimSetting": [-9719, -13772, -8300, 503, -225, -470, -877, -311],
  "SliceThickness": 4,
  "SliceTiming": [0.99, 0, 1.055, 0.065, 1.1225, 0.1325, 1.1875, 0.1975, 1.2525, 0.2625, 1.32, 0.33, 1.385, 0.395, 1.4525, 0.4625, 1.5175, 0.5275, 1.5825, 0.5925, 1.65, 0.66, 1.715, 0.725, 1.7825, 0.7925, 1.8475, 0.8575, 1.9125, 0.9225],
  "SoftwareVersions": "syngo MR E11",
  "SpacingBetweenSlices": 4.8,
  "StationName": "AWP45758",
  "TaskName": "asrt",
  "TotalReadoutTime": 0.0390594,
  "TxRefAmp": 314.194,
  "dcmmeta_affine": [
    [-2.9946699142456055, -0.0993434339761734, 0.23776386678218842, 94.29041290283203],
    [-0.07485548406839371, 2.9617714881896973, 0.7543896436691284, -127.46504211425781],
    [0.1623220592737198, -0.46694791316986084, 4.734381198883057, -51.24987030029297],
    [0.0, 0.0, 0.0, 1.0]
],
  "dcmmeta_reorient_transform": [
    [0.0, -1.0, 0.0, 63.0],
    [1.0, 0.0, 0.0, 0.0],
    [0.0, 0.0, 1.0, 0.0],
    [0.0, 0.0, 0.0, 1.0]
],
  "dcmmeta_shape": [64, 64, 30, 514],
  "dcmmeta_slice_dim": 2,
  "dcmmeta_version": 0.6,
  "global": {
    "const": {
      "AcquisitionMatrix": [0, 64, 64, 0],
      "AngioFlag": "N",
      "BitsAllocated": 16,
      "BitsStored": 12,
      "BodyPartExamined": "BRAIN",
      "Columns": 384,
      "EchoNumbers": 1,
      "EchoTime": 30.0,
      "EchoTrainLength": 64,
      "FlipAngle": 90.0,
      "HighBit": 11,
      "ImageOrientationPatient": [0.99822332196105, 0.02495182876754, 0.05410735379035, -0.0331144776799, 0.98725717286052, 0.1556493045389],
      "ImagePositionPatient": [-551.28401955084, -544.98688322878, -181.35078383656],
      "ImageType": [
        "ORIGINAL",
        "PRIMARY",
        "M",
        "ND",
        "MOSAIC"
],
      "ImagedNucleus": "1H",
      "ImagingFrequency": 123.200206,
      "InPlanePhaseEncodingDirection": "ROW",
      "MRAcquisitionType": "2D",
      "MagneticFieldStrength": 3.0,
      "Manufacturer": "SIEMENS",
      "ManufacturerModelName": "Skyra",
      "Modality": "MR",
      "NumberOfAverages": 1.0,
      "NumberOfPhaseEncodingSteps": 64,
      "PercentPhaseFieldOfView": 100.0,
      "PercentSampling": 100.0,
      "PerformedProcedureStepStartTime": "123329.432000",
      "PhotometricInterpretation": "MONOCHROME2",
      "PixelBandwidth": 1815.0,
      "PixelRepresentation": 0,
      "PixelSpacing": [3.0, 3.0],
      "ProtocolName": "EPI_DGIST_1",
      "RepetitionTime": 2000.0,
      "Rows": 384,
      "SAR": 0.12104299532617,
      "SamplesPerPixel": 1,
      "ScanOptions": "FS",
      "ScanningSequence": "EP",
      "SequenceName": "*epfid2d1_64",
      "SequenceVariant": "SK",
      "SeriesDescription": "EPI_DGIST_1",
      "SeriesNumber": 2,
      "SeriesTime": "123823.632000",
      "SliceLocation": -65.911638769634,
      "SliceThickness": 4.0,
      "SmallestImagePixelValue": 0,
      "SoftwareVersions": "syngo MR E11",
      "SpacingBetweenSlices": 4.8000000630891,
      "SpecificCharacterSet": "ISO_IR 100",
      "StudyID": "1",
      "StudyTime": "123329.358000",
      "TransmitCoilName": "Body",
      "VariableFlipAngleFlag": "N",
      "WindowCenterWidthExplanation": "Algo1",
      "dBdt": 0.0},
    "slices": {}
  },
  "time": {
    "samples": {
      "AcquisitionNumber": [1, 2, 3, 4, 5, 6, 7, 8, 9, 10, 11, 12, 13, 14, 15, 16, 17, 18, 19, 20, 21, 22, 23, 24, 25, 26, 27, 28, 29, 30, 31, 32, 33, 34, 35, 36, 37, 38, 39, 40, 41, 42, 43, 44, 45, 46, 47, 48, 49, 50, 51, 52, 53, 54, 55, 56, 57, 58, 59, 60, 61, 62, 63, 64, 65, 66, 67, 68, 69, 70, 71, 72, 73, 74, 75, 76, 77, 78, 79, 80, 81, 82, 83, 84, 85, 86, 87, 88, 89, 90, 91, 92, 93, 94, 95, 96, 97, 98, 99, 100, 101, 102, 103, 104, 105, 106, 107, 108, 109, 110, 111, 112, 113, 114, 115, 116, 117, 118, 119, 120, 121, 122, 123, 124, 125, 126, 127, 128, 129, 130, 131, 132, 133, 134, 135, 136, 137, 138, 139, 140, 141, 142, 143, 144, 145, 146, 147, 148, 149, 150, 151, 152, 153, 154, 155, 156, 157, 158, 159, 160, 161, 162, 163, 164, 165, 166, 167, 168, 169, 170, 171, 172, 173, 174, 175, 176, 177, 178, 179, 180, 181, 182, 183, 184, 185, 186, 187, 188, 189, 190, 191, 192, 193, 194, 195, 196, 197, 198, 199, 200, 201, 202, 203, 204, 205, 206, 207, 208, 209, 210, 211, 212, 213, 214, 215, 216, 217, 218, 219, 220, 221, 222, 223, 224, 225, 226, 227, 228, 229, 230, 231, 232, 233, 234, 235, 236, 237, 238, 239, 240, 241, 242, 243, 244, 245, 246, 247, 248, 249, 250, 251, 252, 253, 254, 255, 256, 257, 258, 259, 260, 261, 262, 263, 264, 265, 266, 267, 268, 269, 270, 271, 272, 273, 274, 275, 276, 277, 278, 279, 280, 281, 282, 283, 284, 285, 286, 287, 288, 289, 290, 291, 292, 293, 294, 295, 296, 297, 298, 299, 300, 301, 302, 303, 304, 305, 306, 307, 308, 309, 310, 311, 312, 313, 314, 315, 316, 317, 318, 319, 320, 321, 322, 323, 324, 325, 326, 327, 328, 329, 330, 331, 332, 333, 334, 335, 336, 337, 338, 339, 340, 341, 342, 343, 344, 345, 346, 347, 348, 349, 350, 351, 352, 353, 354, 355, 356, 357, 358, 359, 360, 361, 362, 363, 364, 365, 366, 367, 368, 369, 370, 371, 372, 373, 374, 375, 376, 377, 378, 379, 380, 381, 382, 383, 384, 385, 386, 387, 388, 389, 390, 391, 392, 393, 394, 395, 396, 397, 398, 399, 400, 401, 402, 403, 404, 405, 406, 407, 408, 409, 410, 411, 412, 413, 414, 415, 416, 417, 418, 419, 420, 421, 422, 423, 424, 425, 426, 427, 428, 429, 430, 431, 432, 433, 434, 435, 436, 437, 438, 439, 440, 441, 442, 443, 444, 445, 446, 447, 448, 449, 450, 451, 452, 453, 454, 455, 456, 457, 458, 459, 460, 461, 462, 463, 464, 465, 466, 467, 468, 469, 470, 471, 472, 473, 474, 475, 476, 477, 478, 479, 480, 481, 482, 483, 484, 485, 486, 487, 488, 489, 490, 491, 492, 493, 494, 495, 496, 497, 498, 499, 500, 501, 502, 503, 504, 505, 506, 507, 508, 509, 510, 511, 512, 513, 514],
      "AcquisitionTime": ["123725.447500", "123727.447500", "123729.447500", "123731.447500", "123733.447500", "123735.447500", "123737.447500", "123739.447500", "123741.447500", "123743.447500", "123745.447500", "123747.447500", "123749.447500", "123751.447500", "123753.447500", "123755.447500", "123757.447500", "123759.447500", "123801.447500", "123803.447500", "123805.447500", "123807.447500", "123809.447500", "123811.447500", "123813.447500", "123815.447500", "123817.447500", "123819.447500", "123821.447500", "123823.447500", "123825.447500", "123827.447500", "123829.447500", "123831.447500", "123833.447500", "123835.447500", "123837.447500", "123839.447500", "123841.447500", "123843.447500", "123845.447500", "123847.447500", "123849.447500", "123851.447500", "123853.447500", "123855.447500", "123857.447500", "123859.447500", "123901.447500", "123903.447500", "123905.447500", "123907.447500", "123909.447500", "123911.447500", "123913.447500", "123915.447500", "123917.447500", "123919.447500", "123921.447500", "123923.447500", "123925.447500", "123927.447500", "123929.447500", "123931.447500", "123933.447500", "123935.447500", "123937.447500", "123939.447500", "123941.447500", "123943.447500", "123945.447500", "123947.447500", "123949.447500", "123951.447500", "123953.447500", "123955.447500", "123957.447500", "123959.447500", "124001.447500", "124003.447500", "124005.447500", "124007.447500", "124009.447500", "124011.447500", "124013.447500", "124015.447500", "124017.447500", "124019.447500", "124021.447500", "124023.447500", "124025.447500", "124027.447500", "124029.447500", "124031.447500", "124033.447500", "124035.447500", "124037.447500", "124039.447500", "124041.447500", "124043.447500", "124045.447500", "124047.447500", "124049.447500", "124051.447500", "124053.447500", "124055.447500", "124057.447500", "124059.447500", "124101.447500", "124103.447500", "124105.447500", "124107.447500", "124109.447500", "124111.447500", "124113.447500", "124115.447500", "124117.447500", "124119.447500", "124121.447500", "124123.447500", "124125.447500", "124127.447500", "124129.447500", "124131.447500", "124133.447500", "124135.447500", "124137.447500", "124139.447500", "124141.447500", "124143.447500", "124145.447500", "124147.447500", "124149.447500", "124151.447500", "124153.447500", "124155.447500", "124157.447500", "124159.447500", "124201.447500", "124203.447500", "124205.447500", "124207.447500", "124209.447500", "124211.447500", "124213.447500", "124215.447500", "124217.447500", "124219.447500", "124221.447500", "124223.447500", "124225.447500", "124227.447500", "124229.447500", "124231.447500", "124233.447500", "124235.447500", "124237.447500", "124239.447500", "124241.447500", "124243.447500", "124245.447500", "124247.447500", "124249.447500", "124251.447500", "124253.447500", "124255.447500", "124257.447500", "124259.447500", "124301.447500", "124303.447500", "124305.447500", "124307.447500", "124309.447500", "124311.447500", "124313.447500", "124315.447500", "124317.447500", "124319.447500", "124321.447500", "124323.447500", "124325.447500", "124327.447500", "124329.447500", "124331.447500", "124333.447500", "124335.447500", "124337.447500", "124339.447500", "124341.447500", "124343.447500", "124345.447500", "124347.447500", "124349.447500", "124351.447500", "124353.447500", "124355.447500", "124357.447500", "124359.447500", "124401.447500", "124403.447500", "124405.447500", "124407.447500", "124409.447500", "124411.447500", "124413.447500", "124415.447500", "124417.447500", "124419.447500", "124421.447500", "124423.447500", "124425.447500", "124427.447500", "124429.447500", "124431.447500", "124433.447500", "124435.447500", "124437.447500", "124439.447500", "124441.447500", "124443.447500", "124445.447500", "124447.447500", "124449.447500", "124451.447500", "124453.447500", "124455.447500", "124457.447500", "124459.447500", "124501.447500", "124503.447500", "124505.447500", "124507.447500", "124509.447500", "124511.447500", "124513.447500", "124515.447500", "124517.447500", "124519.447500", "124521.447500", "124523.447500", "124525.447500", "124527.447500", "124529.447500", "124531.447500", "124533.447500", "124535.447500", "124537.447500", "124539.447500", "124541.447500", "124543.447500", "124545.447500", "124547.447500", "124549.447500", "124551.447500", "124553.447500", "124555.447500", "124557.447500", "124559.447500", "124601.447500", "124603.447500", "124605.447500", "124607.447500", "124609.447500", "124611.447500", "124613.447500", "124615.447500", "124617.447500", "124619.447500", "124621.447500", "124623.447500", "124625.447500", "124627.447500", "124629.447500", "124631.447500", "124633.447500", "124635.447500", "124637.447500", "124639.447500", "124641.447500", "124643.447500", "124645.447500", "124647.447500", "124649.447500", "124651.447500", "124653.447500", "124655.447500", "124657.447500", "124659.447500", "124701.447500", "124703.447500", "124705.447500", "124707.447500", "124709.447500", "124711.447500", "124713.447500", "124715.447500", "124717.447500", "124719.447500", "124721.447500", "124723.447500", "124725.447500", "124727.447500", "124729.447500", "124731.447500", "124733.447500", "124735.447500", "124737.447500", "124739.447500", "124741.447500", "124743.447500", "124745.447500", "124747.447500", "124749.447500", "124751.447500", "124753.447500", "124755.447500", "124757.447500", "124759.447500", "124801.447500", "124803.447500", "124805.447500", "124807.447500", "124809.447500", "124811.447500", "124813.447500", "124815.447500", "124817.447500", "124819.447500", "124821.447500", "124823.447500", "124825.447500", "124827.447500", "124829.447500", "124831.447500", "124833.447500", "124835.447500", "124837.447500", "124839.447500", "124841.447500", "124843.447500", "124845.447500", "124847.447500", "124849.447500", "124851.447500", "124853.447500", "124855.447500", "124857.447500", "124859.447500", "124901.447500", "124903.447500", "124905.447500", "124907.447500", "124909.447500", "124911.447500", "124913.447500", "124915.447500", "124917.447500", "124919.447500", "124921.447500", "124923.447500", "124925.447500", "124927.447500", "124929.447500", "124931.447500", "124933.447500", "124935.447500", "124937.447500", "124939.447500", "124941.447500", "124943.447500", "124945.447500", "124947.447500", "124949.447500", "124951.447500", "124953.447500", "124955.447500", "124957.447500", "124959.447500", "125001.447500", "125003.447500", "125005.447500", "125007.447500", "125009.447500", "125011.447500", "125013.447500", "125015.447500", "125017.447500", "125019.447500", "125021.447500", "125023.447500", "125025.447500", "125027.447500", "125029.447500", "125031.447500", "125033.447500", "125035.447500", "125037.447500", "125039.447500", "125041.447500", "125043.447500", "125045.447500", "125047.447500", "125049.447500", "125051.447500", "125053.447500", "125055.447500", "125057.447500", "125059.447500", "125101.447500", "125103.447500", "125105.447500", "125107.447500", "125109.447500", "125111.447500", "125113.447500", "125115.447500", "125117.447500", "125119.447500", "125121.447500", "125123.447500", "125125.447500", "125127.447500", "125129.447500", "125131.447500", "125133.447500", "125135.447500", "125137.447500", "125139.447500", "125141.447500", "125143.447500", "125145.447500", "125147.447500", "125149.447500", "125151.447500", "125153.447500", "125155.447500", "125157.447500", "125159.447500", "125201.447500", "125203.447500", "125205.447500", "125207.447500", "125209.447500", "125211.447500", "125213.447500", "125215.447500", "125217.447500", "125219.447500", "125221.447500", "125223.447500", "125225.447500", "125227.447500", "125229.447500", "125231.447500", "125233.447500", "125235.447500", "125237.447500", "125239.447500", "125241.447500", "125243.447500", "125245.447500", "125247.447500", "125249.447500", "125251.447500", "125253.447500", "125255.447500", "125257.447500", "125259.447500", "125301.447500", "125303.447500", "125305.447500", "125307.447500", "125309.447500", "125311.447500", "125313.447500", "125315.447500", "125317.447500", "125319.447500", "125321.447500", "125323.447500", "125325.447500", "125327.447500", "125329.447500", "125331.447500", "125333.447500", "125335.447500", "125337.447500", "125339.447500", "125341.447500", "125343.447500", "125345.447500", "125347.447500", "125349.447500", "125351.447500", "125353.447500", "125355.447500", "125357.447500", "125359.447500", "125401.447500", "125403.447500", "125405.447500", "125407.447500", "125409.447500", "125411.447500", "125413.447500", "125415.447500", "125417.447500", "125419.447500", "125421.447500", "125423.447500", "125425.447500", "125427.447500", "125429.447500", "125431.447500"],
      "ContentTime": ["123823.635000", "123823.639000", "123823.643000", "123823.646000", "123823.648000", "123823.651000", "123823.653000", "123823.656000", "123823.658000", "123823.660000", "123823.663000", "123823.665000", "123823.668000", "123823.670000", "123823.673000", "123823.675000", "123823.678000", "123823.680000", "123823.683000", "123823.685000", "123823.688000", "123823.690000", "123823.693000", "123823.695000", "123823.698000", "123823.700000", "123823.703000", "123823.705000", "123823.707000", "123903.629000", "123903.632000", "123903.635000", "123903.637000", "123903.640000", "123903.642000", "123903.644000", "123903.647000", "123903.649000", "123903.652000", "123903.654000", "123903.657000", "123903.659000", "123903.673000", "123903.676000", "123903.678000", "123903.681000", "123903.683000", "123903.686000", "123903.688000", "123943.630000", "123943.633000", "123943.636000", "123943.638000", "123943.640000", "123943.643000", "123943.645000", "123943.648000", "123943.650000", "123943.653000", "123943.655000", "123943.658000", "123943.660000", "123943.668000", "123943.671000", "123943.673000", "123943.676000", "123943.678000", "123943.680000", "123943.686000", "124023.630000", "124023.633000", "124023.636000", "124023.638000", "124023.641000", "124023.643000", "124023.646000", "124023.648000", "124023.650000", "124023.653000", "124023.655000", "124023.658000", "124023.660000", "124023.663000", "124023.665000", "124023.668000", "124023.670000", "124023.672000", "124023.675000", "124023.681000", "124103.631000", "124103.633000", "124103.636000", "124103.638000", "124103.641000", "124103.643000", "124103.646000", "124103.648000", "124103.650000", "124103.653000", "124103.655000", "124103.658000", "124103.660000", "124103.663000", "124103.665000", "124103.668000", "124103.670000", "124103.672000", "124103.675000", "124103.677000", "124143.629000", "124143.632000", "124143.635000", "124143.637000", "124143.640000", "124143.642000", "124143.645000", "124143.647000", "124143.649000", "124143.658000", "124143.661000", "124143.663000", "124143.665000", "124143.668000", "124143.670000", "124143.673000", "124143.675000", "124143.678000", "124143.680000", "124143.683000", "124223.630000", "124223.633000", "124223.636000", "124223.638000", "124223.641000", "124223.643000", "124223.645000", "124223.648000", "124223.650000", "124223.653000", "124223.655000", "124223.658000", "124223.660000", "124223.663000", "124223.665000", "124223.667000", "124223.670000", "124223.672000", "124223.675000", "124223.677000", "124303.630000", "124303.633000", "124303.636000", "124303.638000", "124303.641000", "124303.643000", "124303.645000", "124303.648000", "124303.650000", "124303.653000", "124303.655000", "124303.658000", "124303.660000", "124303.663000", "124303.665000", "124303.668000", "124303.670000", "124303.672000", "124303.675000", "124303.677000", "124343.629000", "124343.632000", "124343.635000", "124343.637000", "124343.640000", "124343.642000", "124343.645000", "124343.647000", "124343.650000", "124343.652000", "124343.655000", "124343.657000", "124343.659000", "124343.662000", "124343.664000", "124343.667000", "124343.669000", "124343.672000", "124343.674000", "124343.677000", "124423.630000", "124423.633000", "124423.636000", "124423.638000", "124423.641000", "124423.643000", "124423.646000", "124423.648000", "124423.651000", "124423.653000", "124423.656000", "124423.658000", "124423.661000", "124423.663000", "124423.666000", "124423.668000", "124423.671000", "124423.673000", "124423.676000", "124423.678000", "124503.631000", "124503.633000", "124503.636000", "124503.638000", "124503.641000", "124503.643000", "124503.646000", "124503.648000", "124503.651000", "124503.653000", "124503.656000", "124503.658000", "124503.660000", "124503.663000", "124503.665000", "124503.668000", "124503.670000", "124503.673000", "124503.675000", "124503.677000", "124543.630000", "124543.633000", "124543.635000", "124543.638000", "124543.641000", "124543.643000", "124543.646000", "124543.648000", "124543.650000", "124543.653000", "124543.655000", "124543.658000", "124543.660000", "124543.663000", "124543.665000", "124543.668000", "124543.670000", "124543.673000", "124543.675000", "124543.678000", "124623.630000", "124623.632000", "124623.635000", "124623.637000", "124623.640000", "124623.642000", "124623.645000", "124623.647000", "124623.650000", "124623.652000", "124623.655000", "124623.657000", "124623.659000", "124623.662000", "124623.664000", "124623.667000", "124623.669000", "124623.672000", "124623.674000", "124623.677000", "124703.630000", "124703.633000", "124703.636000", "124703.638000", "124703.640000", "124703.643000", "124703.645000", "124703.648000", "124703.650000", "124703.653000", "124703.655000", "124703.658000", "124703.660000", "124703.663000", "124703.665000", "124703.668000", "124703.670000", "124703.672000", "124703.675000", "124703.677000", "124743.630000", "124743.633000", "124743.635000", "124743.638000", "124743.640000", "124743.643000", "124743.645000", "124743.648000", "124743.651000", "124743.653000", "124743.655000", "124743.658000", "124743.660000", "124743.663000", "124743.665000", "124743.668000", "124743.670000", "124743.673000", "124743.675000", "124743.677000", "124823.629000", "124823.632000", "124823.635000", "124823.637000", "124823.640000", "124823.642000", "124823.645000", "124823.647000", "124823.650000", "124823.652000", "124823.655000", "124823.657000", "124823.660000", "124823.662000", "124823.664000", "124823.667000", "124823.669000", "124823.672000", "124823.674000", "124823.677000", "124903.630000", "124903.633000", "124903.636000", "124903.638000", "124903.640000", "124903.643000", "124903.645000", "124903.648000", "124903.650000", "124903.653000", "124903.655000", "124903.670000", "124903.672000", "124903.675000", "124903.677000", "124903.679000", "124903.682000", "124903.684000", "124903.687000", "124903.689000", "124943.630000", "124943.633000", "124943.636000", "124943.638000", "124943.641000", "124943.643000", "124943.646000", "124943.648000", "124943.650000", "124943.653000", "124943.655000", "124943.658000", "124943.660000", "124943.663000", "124943.665000", "124943.668000", "124943.670000", "124943.673000", "124943.675000", "124943.678000", "125023.630000", "125023.633000", "125023.636000", "125023.638000", "125023.641000", "125023.643000", "125023.646000", "125023.648000", "125023.651000", "125023.653000", "125023.656000", "125023.658000", "125023.660000", "125023.663000", "125023.665000", "125023.668000", "125023.670000", "125023.673000", "125023.675000", "125023.678000", "125103.630000", "125103.632000", "125103.635000", "125103.637000", "125103.640000", "125103.642000", "125103.645000", "125103.647000", "125103.650000", "125103.652000", "125103.654000", "125103.657000", "125103.659000", "125103.662000", "125103.664000", "125103.667000", "125103.669000", "125103.672000", "125103.674000", "125103.677000", "125143.630000", "125143.633000", "125143.636000", "125143.638000", "125143.641000", "125143.643000", "125143.645000", "125143.648000", "125143.650000", "125143.653000", "125143.655000", "125143.658000", "125143.660000", "125143.663000", "125143.665000", "125143.667000", "125143.670000", "125143.673000", "125143.675000", "125143.677000", "125223.630000", "125223.633000", "125223.636000", "125223.638000", "125223.641000", "125223.643000", "125223.646000", "125223.648000", "125223.651000", "125223.653000", "125223.656000", "125223.658000", "125223.660000", "125223.663000", "125223.665000", "125223.668000", "125223.670000", "125223.673000", "125223.675000", "125223.678000", "125303.629000", "125303.632000", "125303.635000", "125303.637000", "125303.640000", "125303.642000", "125303.645000", "125303.647000", "125303.650000", "125303.652000", "125303.655000", "125303.657000", "125303.660000", "125303.662000", "125303.664000", "125303.667000", "125303.669000", "125303.672000", "125303.674000", "125303.677000", "125343.631000", "125343.633000", "125343.636000", "125343.638000", "125343.641000", "125343.643000", "125343.646000", "125343.648000", "125343.651000", "125343.653000", "125343.655000", "125343.658000", "125343.660000", "125343.663000", "125343.665000", "125343.668000", "125343.670000", "125343.673000", "125343.675000", "125343.678000", "125423.630000", "125423.633000", "125423.636000", "125423.638000", "125423.641000", "125423.643000", "125423.646000", "125423.648000", "125423.650000", "125423.653000", "125423.655000", "125423.658000", "125423.660000", "125423.663000", "125423.665000", "125423.668000", "125423.670000", "125423.673000", "125423.675000", "125423.677000", "125433.311000", "125433.314000", "125433.317000", "125433.319000", "125433.322000"],
