{
  "AcquisitionMatrixPE": 64,
  "AcquisitionNumber": 1,
  "AcquisitionTime": "13:07:32.970000",
  "BandwidthPerPixelPhaseEncode": 25.202,
  "BaseResolution": 64,
  "BodyPartExamined": "BRAIN",
  "ConsistencyInfo": "N4_VD13C_LATEST_20121124",
  "ConversionSoftware": "dcm2niix",
  "ConversionSoftwareVersion": "v1.0.20201102",
  "DerivedVendorReportedEchoSpacing": 0.00061999,
  "DeviceSerialNumber": "45758",
  "DwellTime": 4.3e-06,
  "EchoTime": 0.03,
  "EchoTrainLength": 64,
  "EffectiveEchoSpacing": 0.00061999,
  "FlipAngle": 90,
  "ImageOrientationPatientDICOM": [0.999608, 0.0278645, -0.00273555, -0.0279216, 0.99933, -0.0236776],
  "ImageType": [
    "ORIGINAL",
    "PRIMARY",
    "M",
    "ND",
    "MOSAIC"
],
  "ImagingFrequency": 123.2,
  "InPlanePhaseEncodingDirectionDICOM": "ROW",
  "InstitutionAddress": "Street StreetNo,City /652E4B/,District,KR,ZIP",
  "InstitutionName": "DGMIF",
  "InstitutionalDepartmentName": "Department",
  "MRAcquisitionType": "2D",
  "MagneticFieldStrength": 3,
  "Manufacturer": "Siemens",
  "ManufacturersModelName": "Skyra",
  "Modality": "MR",
  "PartialFourier": 1,
  "PatientPosition": "HFS",
  "PercentPhaseFOV": 100,
  "PercentSampling": 100,
  "PhaseEncodingDirection": "i",
  "PhaseEncodingSteps": 64,
  "PhaseResolution": 1,
  "PixelBandwidth": 1815,
  "ProcedureStepDescription": "DGMIF^DGIST_Jeon",
  "ProtocolName": "EPI_DGIST_3",
  "PulseSequenceDetails": "%SiemensSeq%\\ep2d_bold",
  "ReceiveCoilActiveElements": "HC1-6",
  "ReceiveCoilName": "HeadNeck_64",
  "ReconMatrixPE": 64,
  "RepetitionTime": 2,
  "SAR": 0.114221,
  "ScanOptions": "FS",
  "ScanningSequence": "EP",
  "SequenceName": "*epfid2d1_64",
  "SequenceVariant": "SK",
  "SeriesDescription": "EPI_DGIST_3",
  "SeriesNumber": 4,
  "ShimSetting": [-9694, -13622, -8350, 349, -175, -186, -879, -271],
  "SliceThickness": 4,
  "SliceTiming": [0.99, 0, 1.055, 0.065, 1.1225, 0.1325, 1.1875, 0.1975, 1.2525, 0.265, 1.32, 0.33, 1.385, 0.395, 1.4525, 0.4625, 1.5175, 0.5275, 1.5825, 0.595, 1.65, 0.66, 1.715, 0.725, 1.7825, 0.7925, 1.8475, 0.8575, 1.9125, 0.9225],
  "SoftwareVersions": "syngo MR D13C",
  "SpacingBetweenSlices": 4.8,
  "StationName": "AWP45758",
  "TaskName": "asrt",
  "TotalReadoutTime": 0.0390594,
  "TxRefAmp": 300.808,
  "dcmmeta_affine": [
    [-2.998823881149292, -0.08376473188400269, -0.009954940527677536, 97.79170989990234],
    [-0.08359362185001373, 2.9979889392852783, -0.11397455632686615, -119.44702911376953],
    [-0.00820663571357727, 0.0710328072309494, 4.798636436462402, -78.31781768798828],
    [0.0, 0.0, 0.0, 1.0]
],
  "dcmmeta_reorient_transform": [
    [0.0, -1.0, 0.0, 63.0],
    [1.0, 0.0, 0.0, 0.0],
    [0.0, 0.0, 1.0, 0.0],
    [0.0, 0.0, 0.0, 1.0]
],
  "dcmmeta_shape": [64, 64, 30, 364],
  "dcmmeta_slice_dim": 2,
  "dcmmeta_version": 0.6,
  "global": {
    "const": {
      "AcquisitionMatrix": [0, 64, 64, 0],
      "AngioFlag": "N",
      "BitsAllocated": 16,
      "BitsStored": 12,
      "BodyPartExamined": "BRAIN",
      "Columns": 384,
      "EchoNumbers": 1,
      "EchoTime": 30.0,
      "EchoTrainLength": 64,
      "FlipAngle": 90.0,
      "HighBit": 11,
      "ImageOrientationPatient": [0.999607965268, 0.02786453957663, -0.0027355450918, -0.0279215780585, 0.99932965365838, -0.0236776011821],
      "ImagePositionPatient": [-558.92399917986, -562.47948716982, -61.164438085606],
      "ImageType": [
        "ORIGINAL",
        "PRIMARY",
        "M",
        "ND",
        "MOSAIC"
],
      "ImagedNucleus": "1H",
      "ImagingFrequency": 123.200315,
      "InPlanePhaseEncodingDirection": "ROW",
      "MRAcquisitionType": "2D",
      "MagneticFieldStrength": 3.0,
      "Manufacturer": "SIEMENS",
      "ManufacturerModelName": "Skyra",
      "Modality": "MR",
      "NumberOfAverages": 1.0,
      "NumberOfPhaseEncodingSteps": 64,
      "PercentPhaseFieldOfView": 100.0,
      "PercentSampling": 100.0,
      "PerformedProcedureStepStartTime": "123100.132000",
      "PhotometricInterpretation": "MONOCHROME2",
      "PixelBandwidth": 1815.0,
      "PixelRepresentation": 0,
      "PixelSpacing": [3.0, 3.0],
      "ProtocolName": "EPI_DGIST_3",
      "RepetitionTime": 2000.0,
      "Rows": 384,
      "SAR": 0.11422071984713,
      "SamplesPerPixel": 1,
      "ScanOptions": "FS",
      "ScanningSequence": "EP",
      "SequenceName": "*epfid2d1_64",
      "SequenceVariant": "SK",
      "SeriesDescription": "EPI_DGIST_3",
      "SeriesNumber": 4,
      "SeriesTime": "130828.929000",
      "SliceLocation": -75.662145997647,
      "SliceThickness": 4.0,
      "SmallestImagePixelValue": 0,
      "SoftwareVersions": "syngo MR D13C",
      "SpacingBetweenSlices": 4.8000000014337,
      "SpecificCharacterSet": "ISO_IR 100",
      "StudyID": "1",
      "StudyTime": "123100.048000",
      "TimeOfLastCalibration": ["123723.000000", "123723.000000"],
      "TransmitCoilName": "Body",
      "VariableFlipAngleFlag": "N",
      "WindowCenterWidthExplanation": "Algo1",
      "dBdt": 0.0},
    "slices": {}
  },
  "time": {
    "samples": {
      "AcquisitionNumber": [1, 2, 3, 4, 5, 6, 7, 8, 9, 10, 11, 12, 13, 14, 15, 16, 17, 18, 19, 20, 21, 22, 23, 24, 25, 26, 27, 28, 29, 30, 31, 32, 33, 34, 35, 36, 37, 38, 39, 40, 41, 42, 43, 44, 45, 46, 47, 48, 49, 50, 51, 52, 53, 54, 55, 56, 57, 58, 59, 60, 61, 62, 63, 64, 65, 66, 67, 68, 69, 70, 71, 72, 73, 74, 75, 76, 77, 78, 79, 80, 81, 82, 83, 84, 85, 86, 87, 88, 89, 90, 91, 92, 93, 94, 95, 96, 97, 98, 99, 100, 101, 102, 103, 104, 105, 106, 107, 108, 109, 110, 111, 112, 113, 114, 115, 116, 117, 118, 119, 120, 121, 122, 123, 124, 125, 126, 127, 128, 129, 130, 131, 132, 133, 134, 135, 136, 137, 138, 139, 140, 141, 142, 143, 144, 145, 146, 147, 148, 149, 150, 151, 152, 153, 154, 155, 156, 157, 158, 159, 160, 161, 162, 163, 164, 165, 166, 167, 168, 169, 170, 171, 172, 173, 174, 175, 176, 177, 178, 179, 180, 181, 182, 183, 184, 185, 186, 187, 188, 189, 190, 191, 192, 193, 194, 195, 196, 197, 198, 199, 200, 201, 202, 203, 204, 205, 206, 207, 208, 209, 210, 211, 212, 213, 214, 215, 216, 217, 218, 219, 220, 221, 222, 223, 224, 225, 226, 227, 228, 229, 230, 231, 232, 233, 234, 235, 236, 237, 238, 239, 240, 241, 242, 243, 244, 245, 246, 247, 248, 249, 250, 251, 252, 253, 254, 255, 256, 257, 258, 259, 260, 261, 262, 263, 264, 265, 266, 267, 268, 269, 270, 271, 272, 273, 274, 275, 276, 277, 278, 279, 280, 281, 282, 283, 284, 285, 286, 287, 288, 289, 290, 291, 292, 293, 294, 295, 296, 297, 298, 299, 300, 301, 302, 303, 304, 305, 306, 307, 308, 309, 310, 311, 312, 313, 314, 315, 316, 317, 318, 319, 320, 321, 322, 323, 324, 325, 326, 327, 328, 329, 330, 331, 332, 333, 334, 335, 336, 337, 338, 339, 340, 341, 342, 343, 344, 345, 346, 347, 348, 349, 350, 351, 352, 353, 354, 355, 356, 357, 358, 359, 360, 361, 362, 363, 364],
      "AcquisitionTime": ["130732.970000", "130734.970000", "130736.970000", "130738.970000", "130740.970000", "130742.970000", "130744.970000", "130746.970000", "130748.970000", "130750.970000", "130752.970000", "130754.970000", "130756.970000", "130758.970000", "130800.970000", "130802.970000", "130804.970000", "130806.970000", "130808.970000", "130810.970000", "130812.970000", "130814.970000", "130816.970000", "130818.970000", "130820.970000", "130822.970000", "130824.970000", "130826.970000", "130828.970000", "130830.970000", "130832.970000", "130834.970000", "130836.970000", "130838.970000", "130840.970000", "130842.970000", "130844.970000", "130846.970000", "130848.970000", "130850.970000", "130852.970000", "130854.970000", "130856.970000", "130858.970000", "130900.970000", "130902.970000", "130904.970000", "130906.970000", "130908.970000", "130910.970000", "130912.970000", "130914.970000", "130916.970000", "130918.970000", "130920.970000", "130922.970000", "130924.970000", "130926.970000", "130928.970000", "130930.970000", "130932.970000", "130934.970000", "130936.970000", "130938.970000", "130940.970000", "130942.970000", "130944.970000", "130946.970000", "130948.970000", "130950.970000", "130952.970000", "130954.970000", "130956.970000", "130958.970000", "131000.970000", "131002.970000", "131004.970000", "131006.970000", "131008.970000", "131010.970000", "131012.970000", "131014.970000", "131016.970000", "131018.970000", "131020.970000", "131022.970000", "131024.970000", "131026.970000", "131028.970000", "131030.970000", "131032.970000", "131034.970000", "131036.970000", "131038.970000", "131040.970000", "131042.970000", "131044.970000", "131046.970000", "131048.970000", "131050.970000", "131052.970000", "131054.970000", "131056.970000", "131058.970000", "131100.970000", "131102.970000", "131104.970000", "131106.970000", "131108.970000", "131110.970000", "131112.970000", "131114.970000", "131116.970000", "131118.970000", "131120.970000", "131122.970000", "131124.970000", "131126.970000", "131128.970000", "131130.970000", "131132.970000", "131134.970000", "131136.970000", "131138.970000", "131140.970000", "131142.970000", "131144.970000", "131146.970000", "131148.970000", "131150.970000", "131152.970000", "131154.970000", "131156.970000", "131158.970000", "131200.970000", "131202.970000", "131204.970000", "131206.970000", "131208.970000", "131210.970000", "131212.970000", "131214.970000", "131216.970000", "131218.970000", "131220.970000", "131222.970000", "131224.970000", "131226.970000", "131228.970000", "131230.970000", "131232.970000", "131234.970000", "131236.970000", "131238.970000", "131240.970000", "131242.970000", "131244.970000", "131246.970000", "131248.970000", "131250.970000", "131252.970000", "131254.970000", "131256.970000", "131258.970000", "131300.970000", "131302.970000", "131304.970000", "131306.970000", "131308.970000", "131310.970000", "131312.970000", "131314.970000", "131316.970000", "131318.970000", "131320.970000", "131322.970000", "131324.970000", "131326.970000", "131328.970000", "131330.970000", "131332.970000", "131334.970000", "131336.970000", "131338.970000", "131340.970000", "131342.970000", "131344.970000", "131346.970000", "131348.970000", "131350.970000", "131352.970000", "131354.970000", "131356.970000", "131358.970000", "131400.970000", "131402.970000", "131404.970000", "131406.970000", "131408.970000", "131410.970000", "131412.970000", "131414.970000", "131416.970000", "131418.970000", "131420.970000", "131422.970000", "131424.970000", "131426.970000", "131428.970000", "131430.970000", "131432.970000", "131434.970000", "131436.970000", "131438.970000", "131440.970000", "131442.970000", "131444.970000", "131446.970000", "131448.970000", "131450.970000", "131452.970000", "131454.970000", "131456.970000", "131458.970000", "131500.970000", "131502.970000", "131504.970000", "131506.970000", "131508.970000", "131510.970000", "131512.970000", "131514.970000", "131516.970000", "131518.970000", "131520.970000", "131522.970000", "131524.970000", "131526.970000", "131528.970000", "131530.970000", "131532.970000", "131534.970000", "131536.970000", "131538.970000", "131540.970000", "131542.970000", "131544.970000", "131546.970000", "131548.970000", "131550.970000", "131552.970000", "131554.970000", "131556.970000", "131558.970000", "131600.970000", "131602.970000", "131604.970000", "131606.970000", "131608.970000", "131610.970000", "131612.970000", "131614.970000", "131616.970000", "131618.970000", "131620.970000", "131622.970000", "131624.970000", "131626.970000", "131628.970000", "131630.970000", "131632.970000", "131634.970000", "131636.970000", "131638.970000", "131640.970000", "131642.970000", "131644.970000", "131646.970000", "131648.970000", "131650.970000", "131652.970000", "131654.970000", "131656.970000", "131658.970000", "131700.970000", "131702.970000", "131704.970000", "131706.970000", "131708.970000", "131710.970000", "131712.970000", "131714.970000", "131716.970000", "131718.970000", "131720.970000", "131722.970000", "131724.970000", "131726.970000", "131728.970000", "131730.970000", "131732.970000", "131734.970000", "131736.970000", "131738.970000", "131740.970000", "131742.970000", "131744.970000", "131746.970000", "131748.970000", "131750.970000", "131752.970000", "131754.970000", "131756.970000", "131758.970000", "131800.970000", "131802.970000", "131804.970000", "131806.970000", "131808.970000", "131810.970000", "131812.970000", "131814.970000", "131816.970000", "131818.970000", "131820.970000", "131822.970000", "131824.970000", "131826.970000", "131828.970000", "131830.970000", "131832.970000", "131834.970000", "131836.970000", "131838.970000", "131840.970000", "131842.970000", "131844.970000", "131846.970000", "131848.970000", "131850.970000", "131852.970000", "131854.970000", "131856.970000", "131858.970000", "131900.970000", "131902.970000", "131904.970000", "131906.970000", "131908.970000", "131910.970000", "131912.970000", "131914.970000", "131916.970000", "131918.970000", "131920.970000", "131922.970000", "131924.970000", "131926.970000", "131928.970000", "131930.970000", "131932.970000", "131934.970000", "131936.970000", "131938.970000"],
      "ContentTime": ["130828.932000", "130828.934000", "130828.936000", "130828.938000", "130828.940000", "130828.942000", "130828.944000", "130828.946000", "130828.948000", "130828.950000", "130828.952000", "130828.954000", "130828.956000", "130828.958000", "130828.960000", "130828.962000", "130828.964000", "130828.974000", "130828.976000", "130828.978000", "130828.981000", "130828.983000", "130828.985000", "130828.987000", "130828.989000", "130828.991000", "130828.993000", "130828.995000", "130908.927000", "130908.929000", "130908.931000", "130908.933000", "130908.935000", "130908.937000", "130908.939000", "130908.941000", "130908.943000", "130908.945000", "130908.947000", "130908.949000", "130908.950000", "130908.952000", "130908.954000", "130908.956000", "130908.958000", "130908.960000", "130908.973000", "130908.975000", "130948.927000", "130948.929000", "130948.931000", "130948.933000", "130948.935000", "130948.937000", "130948.939000", "130948.941000", "130948.943000", "130948.945000", "130948.947000", "130948.949000", "130948.951000", "130948.953000", "130948.955000", "130948.957000", "130948.959000", "130948.960000", "130948.962000", "130948.964000", "131028.927000", "131028.929000", "131028.931000", "131028.933000", "131028.935000", "131028.937000", "131028.939000", "131028.941000", "131028.943000", "131028.945000", "131028.947000", "131028.949000", "131028.951000", "131028.953000", "131028.954000", "131028.956000", "131028.958000", "131028.960000", "131028.962000", "131028.964000", "131108.927000", "131108.929000", "131108.931000", "131108.933000", "131108.935000", "131108.937000", "131108.939000", "131108.941000", "131108.943000", "131108.945000", "131108.947000", "131108.949000", "131108.951000", "131108.953000", "131108.955000", "131108.956000", "131108.958000", "131108.960000", "131108.962000", "131108.964000", "131148.926000", "131148.928000", "131148.930000", "131148.932000", "131148.934000", "131148.936000", "131148.938000", "131148.940000", "131148.942000", "131148.944000", "131148.946000", "131148.948000", "131148.950000", "131148.952000", "131148.954000", "131148.955000", "131148.957000", "131148.959000", "131148.961000", "131148.963000", "131228.927000", "131228.929000", "131228.931000", "131228.933000", "131228.941000", "131228.942000", "131228.944000", "131228.946000", "131228.948000", "131228.950000", "131228.952000", "131228.954000", "131228.956000", "131228.958000", "131228.960000", "131228.962000", "131228.964000", "131228.966000", "131228.968000", "131228.970000", "131308.927000", "131308.929000", "131308.931000", "131308.933000", "131308.935000", "131308.937000", "131308.939000", "131308.941000", "131308.943000", "131308.945000", "131308.947000", "131308.949000", "131308.951000", "131308.952000", "131308.954000", "131308.956000", "131308.958000", "131308.960000", "131308.962000", "131308.964000", "131348.927000", "131348.929000", "131348.931000", "131348.938000", "131348.940000", "131348.942000", "131348.944000", "131348.946000", "131348.947000", "131348.949000", "131348.951000", "131348.953000", "131348.955000", "131348.957000", "131348.959000", "131348.961000", "131348.963000", "131348.965000", "131348.967000", "131348.969000", "131428.927000", "131428.929000", "131428.931000", "131428.933000", "131428.935000", "131428.937000", "131428.939000", "131428.941000", "131428.943000", "131428.945000", "131428.947000", "131428.949000", "131428.951000", "131428.953000", "131428.955000", "131428.957000", "131428.958000", "131428.960000", "131428.962000", "131428.964000", "131508.927000", "131508.929000", "131508.931000", "131508.933000", "131508.944000", "131508.946000", "131508.948000", "131508.950000", "131508.952000", "131508.954000", "131508.956000", "131508.958000", "131508.960000", "131508.962000", "131508.964000", "131508.965000", "131508.967000", "131508.969000", "131508.971000", "131508.973000", "131548.929000", "131548.931000", "131548.933000", "131548.935000", "131548.937000", "131548.939000", "131548.941000", "131548.943000", "131548.945000", "131548.947000", "131548.949000", "131548.951000", "131548.953000", "131548.954000", "131548.956000", "131548.958000", "131548.960000", "131548.962000", "131548.964000", "131548.966000", "131628.927000", "131628.929000", "131628.931000", "131628.933000", "131628.935000", "131628.937000", "131628.939000", "131628.941000", "131628.943000", "131628.945000", "131628.947000", "131628.949000", "131628.951000", "131628.953000", "131628.955000", "131628.957000", "131628.959000", "131628.961000", "131628.962000", "131628.964000", "131708.927000", "131708.929000", "131708.931000", "131708.933000", "131708.935000", "131708.937000", "131708.939000", "131708.941000", "131708.943000", "131708.945000", "131708.947000", "131708.949000", "131708.951000", "131708.953000", "131708.955000", "131708.957000", "131708.959000", "131708.961000", "131708.963000", "131708.964000", "131748.927000", "131748.929000", "131748.931000", "131748.933000", "131748.935000", "131748.937000", "131748.939000", "131748.941000", "131748.943000", "131748.945000", "131748.947000", "131748.949000", "131748.951000", "131748.953000", "131748.955000", "131748.957000", "131748.959000", "131748.961000", "131748.962000", "131748.964000", "131828.926000", "131828.928000", "131828.930000", "131828.932000", "131828.934000", "131828.936000", "131828.938000", "131828.940000", "131828.942000", "131828.944000", "131828.946000", "131828.948000", "131828.950000", "131828.952000", "131828.954000", "131828.956000", "131828.958000", "131828.960000", "131828.962000", "131828.963000", "131908.927000", "131908.929000", "131908.931000", "131908.933000", "131908.935000", "131908.937000", "131908.939000", "131908.941000", "131908.943000", "131908.945000", "131908.947000", "131908.949000", "131908.951000", "131908.953000", "131908.955000", "131908.957000", "131908.959000", "131908.961000", "131908.962000", "131908.964000", "131940.305000", "131940.307000", "131940.309000", "131940.311000", "131940.313000", "131940.315000", "131940.317000", "131940.319000", "131940.321000", "131940.323000", "131940.325000", "131940.327000", "131940.329000", "131940.331000", "131940.334000", "131940.337000"],
      "InstanceCreationTime": ["130828.932000", "130828.934000", "130828.936000", "130828.938000", "130828.940000", "130828.942000", "130828.944000", "130828.946000", "130828.948000", "130828.950000", "130828.952000", "130828.954000", "130828.956000", "130828.958000", "130828.960000", "130828.962000", "130828.964000", "130828.974000", "130828.976000", "130828.978000", "130828.981000", "130828.983000", "130828.985000", "130828.987000", "130828.989000", "130828.991000", "130828.993000", "130828.995000", "130908.927000", "130908.929000", "130908.931000", "130908.933000", "130908.935000", "130908.937000", "130908.939000", "130908.941000", "130908.943000", "130908.945000", "130908.947000", "130908.949000", "130908.950000", "130908.952000", "130908.954000", "130908.956000", "130908.958000", "130908.960000", "130908.973000", "130908.975000", "130948.927000", "130948.929000", "130948.931000", "130948.933000", "130948.935000", "130948.937000", "130948.939000", "130948.941000", "130948.943000", "130948.945000", "130948.947000", "130948.949000", "130948.951000", "130948.953000", "130948.955000", "130948.957000", "130948.959000", "130948.960000", "130948.962000", "130948.964000", "131028.927000", "131028.929000", "131028.931000", "131028.933000", "131028.935000", "131028.937000", "131028.939000", "131028.941000", "131028.943000", "131028.945000", "131028.947000", "131028.949000", "131028.951000", "131028.953000", "131028.954000", "131028.956000", "131028.958000", "131028.960000", "131028.962000", "131028.964000", "131108.927000", "131108.929000", "131108.931000", "131108.933000", "131108.935000", "131108.937000", "131108.939000", "131108.941000", "131108.943000", "131108.945000", "131108.947000", "131108.949000", "131108.951000", "131108.953000", "131108.955000", "131108.956000", "131108.958000", "131108.960000", "131108.962000", "131108.964000", "131148.926000", "131148.928000", "131148.930000", "131148.932000", "131148.934000", "131148.936000", "131148.938000", "131148.940000", "131148.942000", "131148.944000", "131148.946000", "131148.948000", "131148.950000", "131148.952000", "131148.954000", "131148.955000", "131148.957000", "131148.959000", "131148.961000", "131148.963000", "131228.927000", "131228.929000", "131228.931000", "131228.933000", "131228.941000", "131228.942000", "131228.944000", "131228.946000", "131228.948000", "131228.950000", "131228.952000", "131228.954000", "131228.956000", "131228.958000", "131228.960000", "131228.962000", "131228.964000", "131228.966000", "131228.968000", "131228.970000", "131308.927000", "131308.929000", "131308.931000", "131308.933000", "131308.935000", "131308.937000", "131308.939000", "131308.941000", "131308.943000", "131308.945000", "131308.947000", "131308.949000", "131308.951000", "131308.952000", "131308.954000", "131308.956000", "131308.958000", "131308.960000", "131308.962000", "131308.964000", "131348.927000", "131348.929000", "131348.931000", "131348.938000", "131348.940000", "131348.942000", "131348.944000", "131348.946000", "131348.947000", "131348.949000", "131348.951000", "131348.953000", "131348.955000", "131348.957000", "131348.959000", "131348.961000", "131348.963000", "131348.965000", "131348.967000", "131348.969000", "131428.927000", "131428.929000", "131428.931000", "131428.933000", "131428.935000", "131428.937000", "131428.939000", "131428.941000", "131428.943000", "131428.945000", "131428.947000", "131428.949000", "131428.951000", "131428.953000", "131428.955000", "131428.957000", "131428.958000", "131428.960000", "131428.962000", "131428.964000", "131508.927000", "131508.929000", "131508.931000", "131508.933000", "131508.944000", "131508.946000", "131508.948000", "131508.950000", "131508.952000", "131508.954000", "131508.956000", "131508.958000", "131508.960000", "131508.962000", "131508.964000", "131508.965000", "131508.967000", "131508.969000", "131508.971000", "131508.973000", "131548.929000", "131548.931000", "131548.933000", "131548.935000", "131548.937000", "131548.939000", "131548.941000", "131548.943000", "131548.945000", "131548.947000", "131548.949000", "131548.951000", "131548.953000", "131548.954000", "131548.956000", "131548.958000", "131548.960000", "131548.962000", "131548.964000", "131548.966000", "131628.927000", "131628.929000", "131628.931000", "131628.933000", "131628.935000", "131628.937000", "131628.939000", "131628.941000", "131628.943000", "131628.945000", "131628.947000", "131628.949000", "131628.951000", "131628.953000", "131628.955000", "131628.957000", "131628.959000", "131628.961000", "131628.962000", "131628.964000", "131708.927000", "131708.929000", "131708.931000", "131708.933000", "131708.935000", "131708.937000", "131708.939000", "131708.941000", "131708.943000", "131708.945000", "131708.947000", "131708.949000", "131708.951000", "131708.953000", "131708.955000", "131708.957000", "131708.959000", "131708.961000", "131708.963000", "131708.964000", "131748.927000", "131748.929000", "131748.931000", "131748.933000", "131748.935000", "131748.937000", "131748.939000", "131748.941000", "131748.943000", "131748.945000", "131748.947000", "131748.949000", "131748.951000", "131748.953000", "131748.955000", "131748.957000", "131748.959000", "131748.961000", "131748.962000", "131748.964000", "131828.926000", "131828.928000", "131828.930000", "131828.932000", "131828.934000", "131828.936000", "131828.938000", "131828.940000", "131828.942000", "131828.944000", "131828.946000", "131828.948000", "131828.950000", "131828.952000", "131828.954000", "131828.956000", "131828.958000", "131828.960000", "131828.962000", "131828.963000", "131908.927000", "131908.929000", "131908.931000", "131908.933000", "131908.935000", "131908.937000", "131908.939000", "131908.941000", "131908.943000", "131908.945000", "131908.947000", "131908.949000", "131908.951000", "131908.953000", "131908.955000", "131908.957000", "131908.959000", "131908.961000", "131908.962000", "131908.964000", "131940.305000", "131940.307000", "131940.309000", "131940.311000", "131940.313000", "131940.315000", "131940.317000", "131940.319000", "131940.321000", "131940.323000", "131940.325000", "131940.327000", "131940.329000", "131940.331000", "131940.334000", "131940.337000"],
      "InstanceNumber": [1, 2, 3, 4, 5, 6, 7, 8, 9, 10, 11, 12, 13, 14, 15, 16, 17, 18, 19, 20, 21, 22, 23, 24, 25, 26, 27, 28, 29, 30, 31, 32, 33, 34, 35, 36, 37, 38, 39, 40, 41, 42, 43, 44, 45, 46, 47, 48, 49, 50, 51, 52, 53, 54, 55, 56, 57, 58, 59, 60, 61, 62, 63, 64, 65, 66, 67, 68, 69, 70, 71, 72, 73, 74, 75, 76, 77, 78, 79, 80, 81, 82, 83, 84, 85, 86, 87, 88, 89, 90, 91, 92, 93, 94, 95, 96, 97, 98, 99, 100, 101, 102, 103, 104, 105, 106, 107, 108, 109, 110, 111, 112, 113, 114, 115, 116, 117, 118, 119, 120, 121, 122, 123, 124, 125, 126, 127, 128, 129, 130, 131, 132, 133, 134, 135, 136, 137, 138, 139, 140, 141, 142, 143, 144, 145, 146, 147, 148, 149, 150, 151, 152, 153, 154, 155, 156, 157, 158, 159, 160, 161, 162, 163, 164, 165, 166, 167, 168, 169, 170, 171, 172, 173, 174, 175, 176, 177, 178, 179, 180, 181, 182, 183, 184, 185, 186, 187, 188, 189, 190, 191, 192, 193, 194, 195, 196, 197, 198, 199, 200, 201, 202, 203, 204, 205, 206, 207, 208, 209, 210, 211, 212, 213, 214, 215, 216, 217, 218, 219, 220, 221, 222, 223, 224, 225, 226, 227, 228, 229, 230, 231, 232, 233, 234, 235, 236, 237, 238, 239, 240, 241, 242, 243, 244, 245, 246, 247, 248, 249, 250, 251, 252, 253, 254, 255, 256, 257, 258, 259, 260, 261, 262, 263, 264, 265, 266, 267, 268, 269, 270, 271, 272, 273, 274, 275, 276, 277, 278, 279, 280, 281, 282, 283, 284, 285, 286, 287, 288, 289, 290, 291, 292, 293, 294, 295, 296, 297, 298, 299, 300, 301, 302, 303, 304, 305, 306, 307, 308, 309, 310, 311, 312, 313, 314, 315, 316, 317, 318, 319, 320, 321, 322, 323, 324, 325, 326, 327, 328, 329, 330, 331, 332, 333, 334, 335, 336, 337, 338, 339, 340, 341, 342, 343, 344, 345, 346, 347, 348, 349, 350, 351, 352, 353, 354, 355, 356, 357, 358, 359, 360, 361, 362, 363, 364],
      "LargestImagePixelValue": [2287, 2281, 2294, 2308, 2311, 2307, 2392, 2318, 2303, 2296, 2287, 2272, 2273, 2283, 2271, 2282, 2309, 2300, 2286, 2287, 2280, 2279, 2265, 2275, 2288, 2289, 2316, 2328, 2333, 2332, 2337, 2330, 2334, 2333, 2305, 2273, 2272, 2281, 2288, 2318, 2316, 2342, 2309, 2239, 2263, 2277, 2275, 2277, 2295, 2288, 2290, 2306, 2281, 2294, 2268, 2274, 2293, 2292, 2296, 2274, 2310, 2376, 2283, 2259, 2264, 2271, 2263, 2269, 2292, 2384, 2308, 2317, 2328, 2322, 2335, 2322, 2329, 2341, 2333, 2349, 2352, 2342, 2332, 2346, 2338, 2318, 2341, 2327, 2311, 2342, 2314, 2678, 2354, 2357, 2417, 2325, 2329, 2342, 2320, 2322, 2340, 2362, 2352, 2364, 2361, 2350, 2364, 2349, 2340, 2343, 2333, 2383, 2350, 2339, 2323, 2328, 2319, 2327, 2324, 2320, 2323, 2336, 2353, 2366, 2304, 2329, 2345, 2340, 2308, 2337, 2332, 2354, 2346, 2338, 2357, 2340, 2350, 2344, 2356, 2355, 2316, 2312, 2314, 2319, 2314, 2321, 2320, 2328, 2327, 2314, 2330, 2346, 2330, 2308, 2309, 2321, 2306, 2311, 2321, 2322, 2342, 2372, 2370, 2362, 2374, 2371, 2368, 2388, 2392, 2396, 2395, 2395, 2358, 2369, 2366, 2355, 2377, 2379, 2371, 2367, 2365, 2376, 2379, 2359, 2349, 2366, 2366, 2353, 2341, 2369, 2368, 2365, 2360, 2375, 2361, 2356, 2360, 2351, 2368, 2374, 2367, 2367, 2359, 2383, 2384, 2382, 2370, 2351, 2372, 2376, 2371, 2369, 2367, 2374, 2377, 2376, 2384, 2382, 2395, 2382, 2381, 2359, 2357, 2357, 2325, 2330, 2359, 2354, 2353, 2469, 2236, 2241, 2262, 2270, 2277, 2279, 2306, 2322, 2288, 2281, 2294, 2286, 2488, 2359, 2346, 2374, 2389, 2344, 2342, 2351, 2352, 2353, 2344, 2465, 2309, 2299, 2312, 2414, 2235, 2204, 2235, 2246, 2263, 2266, 2269, 2283, 2277, 2286, 2279, 2265, 2306, 2367, 2428, 2343, 2296, 2332, 2310, 2342, 2354, 2368, 2375, 2467, 2417, 2397, 2409, 2403, 2409, 2388, 2379, 2384, 2382, 2380, 2380, 2383, 2370, 2372, 2379, 2388, 2387, 2368, 2336, 2388, 2366, 2467, 2341, 2327, 2404, 2327, 2316, 2317, 2327, 2352, 2358, 2355, 2357, 2359, 2363, 2356, 2350, 2348, 2350, 2351, 2363, 2364, 2354, 2317, 2362, 2249, 2235, 2245, 2227, 2236, 2237, 2273, 2280, 2411, 2407, 2347, 2376, 2333, 2355, 2334, 2320, 2324, 2327, 2386, 2307, 2450, 2370, 2383, 2312, 2356, 2313, 2300, 2281, 2299, 2290, 2303, 2306, 2292, 2309, 2314, 2319, 2334],
