{
  "AcquisitionMatrixPE": 64,
  "AcquisitionNumber": 1,
  "AcquisitionTime": "12:53:52.060000",
  "BandwidthPerPixelPhaseEncode": 25.202,
  "BaseResolution": 64,
  "BodyPartExamined": "BRAIN",
  "ConsistencyInfo": "N4_VD13C_LATEST_20121124",
  "ConversionSoftware": "dcm2niix",
  "ConversionSoftwareVersion": "v1.0.20201102",
  "DerivedVendorReportedEchoSpacing": 0.00061999,
  "DeviceSerialNumber": "45758",
  "DwellTime": 4.3e-06,
  "EchoTime": 0.03,
  "EchoTrainLength": 64,
  "EffectiveEchoSpacing": 0.00061999,
  "FlipAngle": 90,
  "ImageOrientationPatientDICOM": [0.999608, 0.0278645, -0.00273555, -0.0279216, 0.99933, -0.0236776],
  "ImageType": [
    "ORIGINAL",
    "PRIMARY",
    "M",
    "ND",
    "MOSAIC"
],
  "ImagingFrequency": 123.2,
  "InPlanePhaseEncodingDirectionDICOM": "ROW",
  "InstitutionAddress": "Street StreetNo,City /652E4B/,District,KR,ZIP",
  "InstitutionName": "DGMIF",
  "InstitutionalDepartmentName": "Department",
  "MRAcquisitionType": "2D",
  "MagneticFieldStrength": 3,
  "Manufacturer": "Siemens",
  "ManufacturersModelName": "Skyra",
  "Modality": "MR",
  "PartialFourier": 1,
  "PatientPosition": "HFS",
  "PercentPhaseFOV": 100,
  "PercentSampling": 100,
  "PhaseEncodingDirection": "i",
  "PhaseEncodingSteps": 64,
  "PhaseResolution": 1,
  "PixelBandwidth": 1815,
  "ProcedureStepDescription": "DGMIF^DGIST_Jeon",
  "ProtocolName": "EPI_DGIST_2",
  "PulseSequenceDetails": "%SiemensSeq%\\ep2d_bold",
  "ReceiveCoilActiveElements": "HC1-6",
  "ReceiveCoilName": "HeadNeck_64",
  "ReconMatrixPE": 64,
  "RepetitionTime": 2,
  "SAR": 0.114221,
  "ScanOptions": "FS",
  "ScanningSequence": "EP",
  "SequenceName": "*epfid2d1_64",
  "SequenceVariant": "SK",
  "SeriesDescription": "EPI_DGIST_2",
  "SeriesNumber": 3,
  "ShimSetting": [-9694, -13622, -8350, 349, -175, -186, -879, -271],
  "SliceThickness": 4,
  "SliceTiming": [0.99, 0, 1.0575, 0.0675, 1.1225, 0.1325, 1.1875, 0.2, 1.255, 0.265, 1.32, 0.33, 1.3875, 0.3975, 1.4525, 0.4625, 1.5175, 0.53, 1.585, 0.595, 1.65, 0.66, 1.7175, 0.7275, 1.7825, 0.7925, 1.8475, 0.8575, 1.915, 0.925],
  "SoftwareVersions": "syngo MR D13C",
  "SpacingBetweenSlices": 4.8,
  "StationName": "AWP45758",
  "TaskName": "asrt",
  "TotalReadoutTime": 0.0390594,
  "TxRefAmp": 300.808,
  "dcmmeta_affine": [
    [-2.998823881149292, -0.08376473188400269, -0.009954940527677536, 97.79170989990234],
    [-0.08359362185001373, 2.9979889392852783, -0.11397455632686615, -119.44702911376953],
    [-0.00820663571357727, 0.0710328072309494, 4.798636436462402, -78.31781768798828],
    [0.0, 0.0, 0.0, 1.0]
],
  "dcmmeta_reorient_transform": [
    [0.0, -1.0, 0.0, 63.0],
    [1.0, 0.0, 0.0, 0.0],
    [0.0, 0.0, 1.0, 0.0],
    [0.0, 0.0, 0.0, 1.0]
],
  "dcmmeta_shape": [64, 64, 30, 364],
  "dcmmeta_slice_dim": 2,
  "dcmmeta_version": 0.6,
  "global": {
    "const": {
      "AcquisitionMatrix": [0, 64, 64, 0],
      "AngioFlag": "N",
      "BitsAllocated": 16,
      "BitsStored": 12,
      "BodyPartExamined": "BRAIN",
      "Columns": 384,
      "EchoNumbers": 1,
      "EchoTime": 30.0,
      "EchoTrainLength": 64,
      "FlipAngle": 90.0,
      "HighBit": 11,
      "ImageOrientationPatient": [0.999607965268, 0.02786453957663, -0.0027355450918, -0.0279215780585, 0.99932965365838, -0.0236776011821],
      "ImagePositionPatient": [-558.92399917986, -562.47948716982, -61.164438085606],
      "ImageType": [
        "ORIGINAL",
        "PRIMARY",
        "M",
        "ND",
        "MOSAIC"
],
      "ImagedNucleus": "1H",
      "ImagingFrequency": 123.200305,
      "InPlanePhaseEncodingDirection": "ROW",
      "MRAcquisitionType": "2D",
      "MagneticFieldStrength": 3.0,
      "Manufacturer": "SIEMENS",
      "ManufacturerModelName": "Skyra",
      "Modality": "MR",
      "NumberOfAverages": 1.0,
      "NumberOfPhaseEncodingSteps": 64,
      "PercentPhaseFieldOfView": 100.0,
      "PercentSampling": 100.0,
      "PerformedProcedureStepStartTime": "123100.132000",
      "PhotometricInterpretation": "MONOCHROME2",
      "PixelBandwidth": 1815.0,
      "PixelRepresentation": 0,
      "PixelSpacing": [3.0, 3.0],
      "ProtocolName": "EPI_DGIST_2",
      "RepetitionTime": 2000.0,
      "Rows": 384,
      "SAR": 0.11422071984713,
      "SamplesPerPixel": 1,
      "ScanOptions": "FS",
      "ScanningSequence": "EP",
      "SequenceName": "*epfid2d1_64",
      "SequenceVariant": "SK",
      "SeriesDescription": "EPI_DGIST_2",
      "SeriesNumber": 3,
      "SeriesTime": "125436.945000",
      "SliceLocation": -75.662145997647,
      "SliceThickness": 4.0,
      "SmallestImagePixelValue": 0,
      "SoftwareVersions": "syngo MR D13C",
      "SpacingBetweenSlices": 4.8000000014337,
      "SpecificCharacterSet": "ISO_IR 100",
      "StudyID": "1",
      "StudyTime": "123100.048000",
      "TimeOfLastCalibration": ["123723.000000", "123723.000000"],
      "TransmitCoilName": "Body",
      "VariableFlipAngleFlag": "N",
      "WindowCenterWidthExplanation": "Algo1",
      "dBdt": 0.0},
    "slices": {}
  },
  "time": {
    "samples": {
      "AcquisitionNumber": [1, 2, 3, 4, 5, 6, 7, 8, 9, 10, 11, 12, 13, 14, 15, 16, 17, 18, 19, 20, 21, 22, 23, 24, 25, 26, 27, 28, 29, 30, 31, 32, 33, 34, 35, 36, 37, 38, 39, 40, 41, 42, 43, 44, 45, 46, 47, 48, 49, 50, 51, 52, 53, 54, 55, 56, 57, 58, 59, 60, 61, 62, 63, 64, 65, 66, 67, 68, 69, 70, 71, 72, 73, 74, 75, 76, 77, 78, 79, 80, 81, 82, 83, 84, 85, 86, 87, 88, 89, 90, 91, 92, 93, 94, 95, 96, 97, 98, 99, 100, 101, 102, 103, 104, 105, 106, 107, 108, 109, 110, 111, 112, 113, 114, 115, 116, 117, 118, 119, 120, 121, 122, 123, 124, 125, 126, 127, 128, 129, 130, 131, 132, 133, 134, 135, 136, 137, 138, 139, 140, 141, 142, 143, 144, 145, 146, 147, 148, 149, 150, 151, 152, 153, 154, 155, 156, 157, 158, 159, 160, 161, 162, 163, 164, 165, 166, 167, 168, 169, 170, 171, 172, 173, 174, 175, 176, 177, 178, 179, 180, 181, 182, 183, 184, 185, 186, 187, 188, 189, 190, 191, 192, 193, 194, 195, 196, 197, 198, 199, 200, 201, 202, 203, 204, 205, 206, 207, 208, 209, 210, 211, 212, 213, 214, 215, 216, 217, 218, 219, 220, 221, 222, 223, 224, 225, 226, 227, 228, 229, 230, 231, 232, 233, 234, 235, 236, 237, 238, 239, 240, 241, 242, 243, 244, 245, 246, 247, 248, 249, 250, 251, 252, 253, 254, 255, 256, 257, 258, 259, 260, 261, 262, 263, 264, 265, 266, 267, 268, 269, 270, 271, 272, 273, 274, 275, 276, 277, 278, 279, 280, 281, 282, 283, 284, 285, 286, 287, 288, 289, 290, 291, 292, 293, 294, 295, 296, 297, 298, 299, 300, 301, 302, 303, 304, 305, 306, 307, 308, 309, 310, 311, 312, 313, 314, 315, 316, 317, 318, 319, 320, 321, 322, 323, 324, 325, 326, 327, 328, 329, 330, 331, 332, 333, 334, 335, 336, 337, 338, 339, 340, 341, 342, 343, 344, 345, 346, 347, 348, 349, 350, 351, 352, 353, 354, 355, 356, 357, 358, 359, 360, 361, 362, 363, 364],
      "AcquisitionTime": ["125352.060000", "125354.060000", "125356.060000", "125358.060000", "125400.060000", "125402.060000", "125404.060000", "125406.060000", "125408.060000", "125410.060000", "125412.060000", "125414.060000", "125416.060000", "125418.060000", "125420.060000", "125422.060000", "125424.060000", "125426.060000", "125428.060000", "125430.060000", "125432.060000", "125434.060000", "125436.060000", "125438.060000", "125440.060000", "125442.060000", "125444.060000", "125446.060000", "125448.060000", "125450.060000", "125452.060000", "125454.060000", "125456.060000", "125458.060000", "125500.060000", "125502.060000", "125504.060000", "125506.060000", "125508.060000", "125510.060000", "125512.060000", "125514.060000", "125516.060000", "125518.060000", "125520.060000", "125522.060000", "125524.060000", "125526.060000", "125528.060000", "125530.060000", "125532.060000", "125534.060000", "125536.060000", "125538.062500", "125540.062500", "125542.062500", "125544.062500", "125546.062500", "125548.062500", "125550.062500", "125552.062500", "125554.062500", "125556.062500", "125558.062500", "125600.062500", "125602.062500", "125604.062500", "125606.062500", "125608.062500", "125610.062500", "125612.062500", "125614.062500", "125616.062500", "125618.062500", "125620.062500", "125622.062500", "125624.062500", "125626.062500", "125628.062500", "125630.062500", "125632.062500", "125634.062500", "125636.062500", "125638.062500", "125640.062500", "125642.062500", "125644.062500", "125646.062500", "125648.062500", "125650.062500", "125652.062500", "125654.062500", "125656.062500", "125658.062500", "125700.062500", "125702.062500", "125704.062500", "125706.062500", "125708.062500", "125710.062500", "125712.062500", "125714.062500", "125716.062500", "125718.062500", "125720.062500", "125722.062500", "125724.062500", "125726.062500", "125728.062500", "125730.062500", "125732.062500", "125734.062500", "125736.062500", "125738.062500", "125740.062500", "125742.062500", "125744.062500", "125746.062500", "125748.062500", "125750.062500", "125752.062500", "125754.062500", "125756.062500", "125758.062500", "125800.062500", "125802.062500", "125804.062500", "125806.062500", "125808.062500", "125810.062500", "125812.062500", "125814.062500", "125816.062500", "125818.062500", "125820.062500", "125822.062500", "125824.062500", "125826.062500", "125828.062500", "125830.062500", "125832.062500", "125834.062500", "125836.062500", "125838.062500", "125840.062500", "125842.062500", "125844.062500", "125846.062500", "125848.062500", "125850.062500", "125852.062500", "125854.062500", "125856.062500", "125858.062500", "125900.062500", "125902.062500", "125904.062500", "125906.062500", "125908.062500", "125910.062500", "125912.062500", "125914.062500", "125916.062500", "125918.062500", "125920.062500", "125922.062500", "125924.062500", "125926.062500", "125928.062500", "125930.062500", "125932.062500", "125934.062500", "125936.062500", "125938.062500", "125940.062500", "125942.062500", "125944.062500", "125946.062500", "125948.062500", "125950.062500", "125952.062500", "125954.062500", "125956.062500", "125958.062500", "130000.062500", "130002.062500", "130004.062500", "130006.062500", "130008.062500", "130010.062500", "130012.062500", "130014.062500", "130016.062500", "130018.062500", "130020.062500", "130022.062500", "130024.062500", "130026.062500", "130028.062500", "130030.062500", "130032.062500", "130034.062500", "130036.062500", "130038.062500", "130040.062500", "130042.062500", "130044.062500", "130046.062500", "130048.062500", "130050.062500", "130052.062500", "130054.062500", "130056.062500", "130058.062500", "130100.062500", "130102.062500", "130104.062500", "130106.062500", "130108.062500", "130110.062500", "130112.062500", "130114.062500", "130116.062500", "130118.062500", "130120.062500", "130122.062500", "130124.062500", "130126.062500", "130128.062500", "130130.062500", "130132.062500", "130134.062500", "130136.062500", "130138.062500", "130140.062500", "130142.062500", "130144.062500", "130146.062500", "130148.062500", "130150.062500", "130152.062500", "130154.062500", "130156.062500", "130158.062500", "130200.062500", "130202.062500", "130204.062500", "130206.062500", "130208.062500", "130210.062500", "130212.062500", "130214.062500", "130216.062500", "130218.062500", "130220.062500", "130222.062500", "130224.062500", "130226.062500", "130228.062500", "130230.062500", "130232.062500", "130234.062500", "130236.062500", "130238.062500", "130240.062500", "130242.062500", "130244.062500", "130246.062500", "130248.062500", "130250.062500", "130252.062500", "130254.062500", "130256.062500", "130258.062500", "130300.062500", "130302.062500", "130304.062500", "130306.062500", "130308.062500", "130310.062500", "130312.062500", "130314.062500", "130316.062500", "130318.062500", "130320.062500", "130322.062500", "130324.062500", "130326.062500", "130328.062500", "130330.062500", "130332.062500", "130334.062500", "130336.062500", "130338.062500", "130340.062500", "130342.062500", "130344.062500", "130346.062500", "130348.062500", "130350.062500", "130352.062500", "130354.062500", "130356.062500", "130358.062500", "130400.062500", "130402.062500", "130404.062500", "130406.062500", "130408.062500", "130410.062500", "130412.062500", "130414.062500", "130416.062500", "130418.062500", "130420.062500", "130422.062500", "130424.062500", "130426.062500", "130428.062500", "130430.062500", "130432.062500", "130434.062500", "130436.062500", "130438.062500", "130440.062500", "130442.062500", "130444.062500", "130446.062500", "130448.062500", "130450.062500", "130452.062500", "130454.062500", "130456.062500", "130458.062500", "130500.062500", "130502.062500", "130504.062500", "130506.062500", "130508.062500", "130510.062500", "130512.062500", "130514.062500", "130516.062500", "130518.062500", "130520.062500", "130522.062500", "130524.062500", "130526.062500", "130528.062500", "130530.062500", "130532.062500", "130534.062500", "130536.062500", "130538.062500", "130540.062500", "130542.062500", "130544.062500", "130546.062500", "130548.062500", "130550.062500", "130552.062500", "130554.062500", "130556.062500", "130558.062500"],
      "ContentTime": ["125436.948000", "125436.950000", "125436.952000", "125436.954000", "125436.956000", "125436.958000", "125436.960000", "125436.962000", "125436.964000", "125436.966000", "125436.968000", "125436.970000", "125436.972000", "125436.974000", "125436.976000", "125436.978000", "125436.980000", "125436.981000", "125436.983000", "125436.985000", "125436.987000", "125437.001000", "125516.943000", "125516.945000", "125516.947000", "125516.949000", "125516.951000", "125516.953000", "125516.955000", "125516.957000", "125516.959000", "125516.961000", "125516.963000", "125516.965000", "125516.967000", "125516.969000", "125516.970000", "125516.972000", "125516.974000", "125516.976000", "125516.978000", "125516.980000", "125556.943000", "125556.945000", "125556.947000", "125556.949000", "125556.951000", "125556.953000", "125556.955000", "125556.957000", "125556.959000", "125556.961000", "125556.963000", "125556.965000", "125556.967000", "125556.969000", "125556.971000", "125556.973000", "125556.975000", "125556.976000", "125556.978000", "125556.980000", "125636.943000", "125636.945000", "125636.947000", "125636.949000", "125636.951000", "125636.953000", "125636.955000", "125636.957000", "125636.959000", "125636.961000", "125636.963000", "125636.965000", "125636.967000", "125636.969000", "125636.971000", "125636.973000", "125636.975000", "125636.976000", "125636.978000", "125636.980000", "125716.943000", "125716.945000", "125716.947000", "125716.955000", "125716.957000", "125716.959000", "125716.961000", "125716.963000", "125716.964000", "125716.966000", "125716.968000", "125716.970000", "125716.972000", "125716.974000", "125716.976000", "125716.978000", "125716.980000", "125716.982000", "125716.984000", "125716.986000", "125756.943000", "125756.945000", "125756.947000", "125756.949000", "125756.951000", "125756.953000", "125756.955000", "125756.957000", "125756.959000", "125756.961000", "125756.963000", "125756.965000", "125756.967000", "125756.969000", "125756.971000", "125756.973000", "125756.975000", "125756.976000", "125756.978000", "125756.980000", "125836.943000", "125836.945000", "125836.947000", "125836.949000", "125836.951000", "125836.953000", "125836.955000", "125836.957000", "125836.959000", "125836.961000", "125836.963000", "125836.965000", "125836.967000", "125836.969000", "125836.971000", "125836.972000", "125836.986000", "125836.988000", "125836.990000", "125836.992000", "125916.943000", "125916.945000", "125916.947000", "125916.949000", "125916.951000", "125916.953000", "125916.955000", "125916.957000", "125916.959000", "125916.961000", "125916.963000", "125916.965000", "125916.967000", "125916.969000", "125916.971000", "125916.973000", "125916.974000", "125916.976000", "125916.978000", "125916.980000", "125936.943000", "125936.945000", "125936.947000", "125936.949000", "125936.951000", "125936.953000", "125936.955000", "125936.957000", "125936.959000", "125936.961000", "130016.943000", "130016.945000", "130016.947000", "130016.949000", "130016.951000", "130016.953000", "130016.955000", "130016.957000", "130016.959000", "130016.961000", "130016.963000", "130016.965000", "130016.967000", "130016.969000", "130016.971000", "130016.973000", "130016.975000", "130016.976000", "130016.978000", "130016.980000", "130056.943000", "130056.945000", "130056.947000", "130056.949000", "130056.951000", "130056.953000", "130056.955000", "130056.957000", "130056.959000", "130056.961000", "130056.963000", "130056.965000", "130056.967000", "130056.969000", "130056.971000", "130056.973000", "130056.975000", "130056.976000", "130056.978000", "130056.980000", "130136.943000", "130136.945000", "130136.947000", "130136.949000", "130136.951000", "130136.953000", "130136.955000", "130136.957000", "130136.959000", "130136.961000", "130136.963000", "130136.965000", "130136.967000", "130136.969000", "130136.971000", "130136.973000", "130136.975000", "130136.977000", "130136.978000", "130136.980000", "130216.943000", "130216.945000", "130216.947000", "130216.949000", "130216.951000", "130216.953000", "130216.955000", "130216.957000", "130216.959000", "130216.961000", "130216.963000", "130216.965000", "130216.967000", "130216.969000", "130216.971000", "130216.973000", "130216.974000", "130216.976000", "130216.978000", "130216.980000", "130256.943000", "130256.945000", "130256.947000", "130256.949000", "130256.951000", "130256.953000", "130256.955000", "130256.957000", "130256.959000", "130256.961000", "130256.963000", "130256.965000", "130256.967000", "130256.969000", "130256.971000", "130256.973000", "130256.974000", "130256.976000", "130256.978000", "130256.980000", "130336.943000", "130336.945000", "130336.947000", "130336.949000", "130336.951000", "130336.953000", "130336.955000", "130336.957000", "130336.959000", "130336.961000", "130336.963000", "130336.965000", "130336.967000", "130336.969000", "130336.971000", "130336.973000", "130336.975000", "130336.977000", "130336.979000", "130336.980000", "130416.943000", "130416.945000", "130416.947000", "130416.949000", "130416.951000", "130416.953000", "130416.955000", "130416.957000", "130416.959000", "130416.961000", "130416.963000", "130416.965000", "130416.967000", "130416.969000", "130416.971000", "130416.973000", "130416.975000", "130416.977000", "130416.979000", "130416.981000", "130456.943000", "130456.945000", "130456.947000", "130456.949000", "130456.951000", "130456.953000", "130456.970000", "130456.972000", "130456.974000", "130456.976000", "130456.978000", "130456.980000", "130456.982000", "130456.984000", "130456.985000", "130456.987000", "130456.989000", "130456.991000", "130456.993000", "130456.995000", "130536.943000", "130536.945000", "130536.947000", "130536.949000", "130536.951000", "130536.953000", "130536.955000", "130536.957000", "130536.959000", "130536.961000", "130536.963000", "130536.965000", "130536.967000", "130536.969000", "130536.971000", "130536.972000", "130536.974000", "130536.976000", "130536.978000", "130536.980000", "130559.159000", "130559.161000", "130559.163000", "130559.165000", "130559.167000", "130559.169000", "130559.171000", "130559.173000", "130559.175000", "130559.177000", "130559.179000", "130559.180000"],
      "InstanceCreationTime": ["125436.948000", "125436.950000", "125436.952000", "125436.954000", "125436.956000", "125436.958000", "125436.960000", "125436.962000", "125436.964000", "125436.966000", "125436.968000", "125436.970000", "125436.972000", "125436.974000", "125436.976000", "125436.978000", "125436.980000", "125436.981000", "125436.983000", "125436.985000", "125436.987000", "125437.001000", "125516.943000", "125516.945000", "125516.947000", "125516.949000", "125516.951000", "125516.953000", "125516.955000", "125516.957000", "125516.959000", "125516.961000", "125516.963000", "125516.965000", "125516.967000", "125516.969000", "125516.970000", "125516.972000", "125516.974000", "125516.976000", "125516.978000", "125516.980000", "125556.943000", "125556.945000", "125556.947000", "125556.949000", "125556.951000", "125556.953000", "125556.955000", "125556.957000", "125556.959000", "125556.961000", "125556.963000", "125556.965000", "125556.967000", "125556.969000", "125556.971000", "125556.973000", "125556.975000", "125556.976000", "125556.978000", "125556.980000", "125636.943000", "125636.945000", "125636.947000", "125636.949000", "125636.951000", "125636.953000", "125636.955000", "125636.957000", "125636.959000", "125636.961000", "125636.963000", "125636.965000", "125636.967000", "125636.969000", "125636.971000", "125636.973000", "125636.975000", "125636.976000", "125636.978000", "125636.980000", "125716.943000", "125716.945000", "125716.947000", "125716.955000", "125716.957000", "125716.959000", "125716.961000", "125716.963000", "125716.964000", "125716.966000", "125716.968000", "125716.970000", "125716.972000", "125716.974000", "125716.976000", "125716.978000", "125716.980000", "125716.982000", "125716.984000", "125716.986000", "125756.943000", "125756.945000", "125756.947000", "125756.949000", "125756.951000", "125756.953000", "125756.955000", "125756.957000", "125756.959000", "125756.961000", "125756.963000", "125756.965000", "125756.967000", "125756.969000", "125756.971000", "125756.973000", "125756.975000", "125756.976000", "125756.978000", "125756.980000", "125836.943000", "125836.945000", "125836.947000", "125836.949000", "125836.951000", "125836.953000", "125836.955000", "125836.957000", "125836.959000", "125836.961000", "125836.963000", "125836.965000", "125836.967000", "125836.969000", "125836.971000", "125836.972000", "125836.986000", "125836.988000", "125836.990000", "125836.992000", "125916.943000", "125916.945000", "125916.947000", "125916.949000", "125916.951000", "125916.953000", "125916.955000", "125916.957000", "125916.959000", "125916.961000", "125916.963000", "125916.965000", "125916.967000", "125916.969000", "125916.971000", "125916.973000", "125916.974000", "125916.976000", "125916.978000", "125916.980000", "125936.943000", "125936.945000", "125936.947000", "125936.949000", "125936.951000", "125936.953000", "125936.955000", "125936.957000", "125936.959000", "125936.961000", "130016.943000", "130016.945000", "130016.947000", "130016.949000", "130016.951000", "130016.953000", "130016.955000", "130016.957000", "130016.959000", "130016.961000", "130016.963000", "130016.965000", "130016.967000", "130016.969000", "130016.971000", "130016.973000", "130016.975000", "130016.976000", "130016.978000", "130016.980000", "130056.943000", "130056.945000", "130056.947000", "130056.949000", "130056.951000", "130056.953000", "130056.955000", "130056.957000", "130056.959000", "130056.961000", "130056.963000", "130056.965000", "130056.967000", "130056.969000", "130056.971000", "130056.973000", "130056.975000", "130056.976000", "130056.978000", "130056.980000", "130136.943000", "130136.945000", "130136.947000", "130136.949000", "130136.951000", "130136.953000", "130136.955000", "130136.957000", "130136.959000", "130136.961000", "130136.963000", "130136.965000", "130136.967000", "130136.969000", "130136.971000", "130136.973000", "130136.975000", "130136.977000", "130136.978000", "130136.980000", "130216.943000", "130216.945000", "130216.947000", "130216.949000", "130216.951000", "130216.953000", "130216.955000", "130216.957000", "130216.959000", "130216.961000", "130216.963000", "130216.965000", "130216.967000", "130216.969000", "130216.971000", "130216.973000", "130216.974000", "130216.976000", "130216.978000", "130216.980000", "130256.943000", "130256.945000", "130256.947000", "130256.949000", "130256.951000", "130256.953000", "130256.955000", "130256.957000", "130256.959000", "130256.961000", "130256.963000", "130256.965000", "130256.967000", "130256.969000", "130256.971000", "130256.973000", "130256.974000", "130256.976000", "130256.978000", "130256.980000", "130336.943000", "130336.945000", "130336.947000", "130336.949000", "130336.951000", "130336.953000", "130336.955000", "130336.957000", "130336.959000", "130336.961000", "130336.963000", "130336.965000", "130336.967000", "130336.969000", "130336.971000", "130336.973000", "130336.975000", "130336.977000", "130336.979000", "130336.980000", "130416.943000", "130416.945000", "130416.947000", "130416.949000", "130416.951000", "130416.953000", "130416.955000", "130416.957000", "130416.959000", "130416.961000", "130416.963000", "130416.965000", "130416.967000", "130416.969000", "130416.971000", "130416.973000", "130416.975000", "130416.977000", "130416.979000", "130416.981000", "130456.943000", "130456.945000", "130456.947000", "130456.949000", "130456.951000", "130456.953000", "130456.970000", "130456.972000", "130456.974000", "130456.976000", "130456.978000", "130456.980000", "130456.982000", "130456.984000", "130456.985000", "130456.987000", "130456.989000", "130456.991000", "130456.993000", "130456.995000", "130536.943000", "130536.945000", "130536.947000", "130536.949000", "130536.951000", "130536.953000", "130536.955000", "130536.957000", "130536.959000", "130536.961000", "130536.963000", "130536.965000", "130536.967000", "130536.969000", "130536.971000", "130536.972000", "130536.974000", "130536.976000", "130536.978000", "130536.980000", "130559.159000", "130559.161000", "130559.163000", "130559.165000", "130559.167000", "130559.169000", "130559.171000", "130559.173000", "130559.175000", "130559.177000", "130559.179000", "130559.180000"],
      "InstanceNumber": [1, 2, 3, 4, 5, 6, 7, 8, 9, 10, 11, 12, 13, 14, 15, 16, 17, 18, 19, 20, 21, 22, 23, 24, 25, 26, 27, 28, 29, 30, 31, 32, 33, 34, 35, 36, 37, 38, 39, 40, 41, 42, 43, 44, 45, 46, 47, 48, 49, 50, 51, 52, 53, 54, 55, 56, 57, 58, 59, 60, 61, 62, 63, 64, 65, 66, 67, 68, 69, 70, 71, 72, 73, 74, 75, 76, 77, 78, 79, 80, 81, 82, 83, 84, 85, 86, 87, 88, 89, 90, 91, 92, 93, 94, 95, 96, 97, 98, 99, 100, 101, 102, 103, 104, 105, 106, 107, 108, 109, 110, 111, 112, 113, 114, 115, 116, 117, 118, 119, 120, 121, 122, 123, 124, 125, 126, 127, 128, 129, 130, 131, 132, 133, 134, 135, 136, 137, 138, 139, 140, 141, 142, 143, 144, 145, 146, 147, 148, 149, 150, 151, 152, 153, 154, 155, 156, 157, 158, 159, 160, 161, 162, 163, 164, 165, 166, 167, 168, 169, 170, 171, 172, 173, 174, 175, 176, 177, 178, 179, 180, 181, 182, 183, 184, 185, 186, 187, 188, 189, 190, 191, 192, 193, 194, 195, 196, 197, 198, 199, 200, 201, 202, 203, 204, 205, 206, 207, 208, 209, 210, 211, 212, 213, 214, 215, 216, 217, 218, 219, 220, 221, 222, 223, 224, 225, 226, 227, 228, 229, 230, 231, 232, 233, 234, 235, 236, 237, 238, 239, 240, 241, 242, 243, 244, 245, 246, 247, 248, 249, 250, 251, 252, 253, 254, 255, 256, 257, 258, 259, 260, 261, 262, 263, 264, 265, 266, 267, 268, 269, 270, 271, 272, 273, 274, 275, 276, 277, 278, 279, 280, 281, 282, 283, 284, 285, 286, 287, 288, 289, 290, 291, 292, 293, 294, 295, 296, 297, 298, 299, 300, 301, 302, 303, 304, 305, 306, 307, 308, 309, 310, 311, 312, 313, 314, 315, 316, 317, 318, 319, 320, 321, 322, 323, 324, 325, 326, 327, 328, 329, 330, 331, 332, 333, 334, 335, 336, 337, 338, 339, 340, 341, 342, 343, 344, 345, 346, 347, 348, 349, 350, 351, 352, 353, 354, 355, 356, 357, 358, 359, 360, 361, 362, 363, 364],
      "LargestImagePixelValue": [2396, 2322, 2404, 2388, 2415, 2417, 2407, 2400, 2380, 2346, 2339, 2320, 2306, 2325, 2346, 2311, 2326, 2312, 2319, 2324, 2321, 2327, 2323, 2335, 2326, 2320, 2340, 2348, 2338, 2336, 2297, 2283, 2315, 2315, 2309, 2303, 2316, 2333, 2340, 2353, 2342, 2312, 2289, 2296, 2304, 2300, 2309, 2298, 2305, 2312, 2311, 2306, 2316, 2312, 2305, 2301, 2317, 2302, 2313, 2330, 2361, 2287, 2407, 2375, 2341, 2329, 2295, 2287, 2293, 2283, 2297, 2300, 2324, 2337, 2340, 2356, 2326, 2321, 2311, 2305, 2303, 2296, 2308, 2311, 2303, 2331, 2323, 2319, 2326, 2307, 2300, 2348, 2327, 2311, 2352, 2322, 2302, 2308, 2289, 2296, 2290, 2282, 2290, 2299, 2338, 2355, 2331, 2349, 2357, 2345, 2351, 2357, 2343, 2354, 2351, 2355, 2327, 2304, 2324, 2321, 2322, 2300, 2300, 2405, 2361, 2342, 2306, 2280, 2290, 2289, 2298, 2310, 2308, 2308, 2320, 2309, 2330, 2301, 2318, 2313, 2300, 2293, 2297, 2303, 2299, 2302, 2307, 2320, 2327, 2301, 2293, 2323, 2308, 2285, 2294, 2282, 2289, 2269, 2247, 2261, 2251, 2285, 2261, 2283, 2280, 2279, 2300, 2284, 2272, 2291, 2290, 2284, 2307, 2279, 2288, 2254, 2241, 2240, 2234, 2225, 2237, 2270, 2341, 2331, 2348, 2359, 2313, 2287, 2289, 2288, 2296, 2300, 2291, 2307, 2302, 2311, 2309, 2304, 2301, 2294, 2295, 2298, 2299, 2280, 2283, 2289, 2290, 2292, 2280, 2288, 2285, 2276, 2274, 2274, 2277, 2279, 2299, 2263, 2281, 2241, 2234, 2244, 2238, 2237, 2245, 2240, 2254, 2232, 2247, 2256, 2246, 2269, 2274, 2249, 2269, 2232, 2242, 2243, 2238, 2243, 2236, 2244, 2221, 2239, 2245, 2254, 2253, 2215, 2253, 2223, 2222, 2249, 2300, 2309, 2232, 2212, 2211, 2213, 2200, 2212, 2232, 2232, 2242, 2241, 2235, 2239, 2251, 2278, 2242, 2247, 2261, 2281, 2273, 2308, 2331, 2287, 2287, 2257, 2261, 2273, 2285, 2281, 2285, 2289, 2300, 2289, 2281, 2301, 2333, 2312, 2276, 2287, 2295, 2247, 2229, 2244, 2247, 2286, 2285, 2267, 2291, 2270, 2286, 2274, 2268, 2263, 2266, 2250, 2283, 2279, 2277, 2270, 2271, 2281, 2291, 2306, 2319, 2297, 2286, 2286, 2276, 2290, 2294, 2285, 2289, 2309, 2292, 2284, 2286, 2290, 2277, 2273, 2338, 2295, 2277, 2292, 2282, 2266, 2286, 2290, 2306, 2317, 2342, 2354, 2376, 2369, 2365, 2362, 2350, 2332, 2332, 2323, 2292, 2291, 2312, 2301, 2313, 2336, 2330, 2344, 2365, 2361, 2337, 2295],
