{
  "AcquisitionMatrixPE": 64,
  "AcquisitionNumber": 1,
  "AcquisitionTime": "12:34:58.760000",
  "BandwidthPerPixelPhaseEncode": 25.202,
  "BaseResolution": 64,
  "BodyPartExamined": "BRAIN",
  "ConsistencyInfo": "N4_VD13C_LATEST_20121124",
  "ConversionSoftware": "dcm2niix",
  "ConversionSoftwareVersion": "v1.0.20201102",
  "DerivedVendorReportedEchoSpacing": 0.00061999,
  "DeviceSerialNumber": "45758",
  "DwellTime": 4.3e-06,
  "EchoTime": 0.03,
  "EchoTrainLength": 64,
  "EffectiveEchoSpacing": 0.00061999,
  "FlipAngle": 90,
  "ImageOrientationPatientDICOM": [0.999608, 0.0278645, -0.00273555, -0.0279216, 0.99933, -0.0236776],
  "ImageType": [
    "ORIGINAL",
    "PRIMARY",
    "M",
    "ND",
    "MOSAIC"
],
  "ImagingFrequency": 123.2,
  "InPlanePhaseEncodingDirectionDICOM": "ROW",
  "InstitutionAddress": "Street StreetNo,City /652E4B/,District,KR,ZIP",
  "InstitutionName": "DGMIF",
  "InstitutionalDepartmentName": "Department",
  "MRAcquisitionType": "2D",
  "MagneticFieldStrength": 3,
  "Manufacturer": "Siemens",
  "ManufacturersModelName": "Skyra",
  "Modality": "MR",
  "PartialFourier": 1,
  "PatientPosition": "HFS",
  "PercentPhaseFOV": 100,
  "PercentSampling": 100,
  "PhaseEncodingDirection": "i",
  "PhaseEncodingSteps": 64,
  "PhaseResolution": 1,
  "PixelBandwidth": 1815,
  "ProcedureStepDescription": "DGMIF^DGIST_Jeon",
  "ProtocolName": "EPI_DGIST_1",
  "PulseSequenceDetails": "%SiemensSeq%\\ep2d_bold",
  "ReceiveCoilActiveElements": "HC1-6",
  "ReceiveCoilName": "HeadNeck_64",
  "ReconMatrixPE": 64,
  "RepetitionTime": 2,
  "SAR": 0.114221,
  "ScanOptions": "FS",
  "ScanningSequence": "EP",
  "SequenceName": "*epfid2d1_64",
  "SequenceVariant": "SK",
  "SeriesDescription": "EPI_DGIST_1",
  "SeriesNumber": 2,
  "ShimSetting": [-9694, -13622, -8350, 349, -175, -186, -879, -271],
  "SliceThickness": 4,
  "SliceTiming": [0.99, 0, 1.0575, 0.0675, 1.1225, 0.1325, 1.19, 0.2, 1.255, 0.265, 1.32, 0.33, 1.3875, 0.3975, 1.4525, 0.4625, 1.52, 0.53, 1.585, 0.595, 1.65, 0.66, 1.7175, 0.7275, 1.7825, 0.7925, 1.85, 0.86, 1.915, 0.925],
  "SoftwareVersions": "syngo MR D13C",
  "SpacingBetweenSlices": 4.8,
  "StationName": "AWP45758",
  "TaskName": "asrt",
  "TotalReadoutTime": 0.0390594,
  "TxRefAmp": 300.808,
  "dcmmeta_affine": [
    [-2.998823881149292, -0.08376473188400269, -0.009954940527677536, 97.79170989990234],
    [-0.08359362185001373, 2.9979889392852783, -0.11397455632686615, -119.44702911376953],
    [-0.00820663571357727, 0.0710328072309494, 4.798636436462402, -78.31781768798828],
    [0.0, 0.0, 0.0, 1.0]
],
  "dcmmeta_reorient_transform": [
    [0.0, -1.0, 0.0, 63.0],
    [1.0, 0.0, 0.0, 0.0],
    [0.0, 0.0, 1.0, 0.0],
    [0.0, 0.0, 0.0, 1.0]
],
  "dcmmeta_shape": [64, 64, 30, 514],
  "dcmmeta_slice_dim": 2,
  "dcmmeta_version": 0.6,
  "global": {
    "const": {
      "AcquisitionMatrix": [0, 64, 64, 0],
      "AngioFlag": "N",
      "BitsAllocated": 16,
      "BitsStored": 12,
      "BodyPartExamined": "BRAIN",
      "Columns": 384,
      "EchoNumbers": 1,
      "EchoTime": 30.0,
      "EchoTrainLength": 64,
      "FlipAngle": 90.0,
      "HighBit": 11,
      "ImageOrientationPatient": [0.999607965268, 0.02786453957663, -0.0027355450918, -0.0279215780585, 0.99932965365838, -0.0236776011821],
      "ImagePositionPatient": [-558.92399917986, -562.47948716982, -61.164438085606],
      "ImageType": [
        "ORIGINAL",
        "PRIMARY",
        "M",
        "ND",
        "MOSAIC"
],
      "ImagedNucleus": "1H",
      "ImagingFrequency": 123.200279,
      "InPlanePhaseEncodingDirection": "ROW",
      "MRAcquisitionType": "2D",
      "MagneticFieldStrength": 3.0,
      "Manufacturer": "SIEMENS",
      "ManufacturerModelName": "Skyra",
      "Modality": "MR",
      "NumberOfAverages": 1.0,
      "NumberOfPhaseEncodingSteps": 64,
      "PercentPhaseFieldOfView": 100.0,
      "PercentSampling": 100.0,
      "PerformedProcedureStepStartTime": "123100.132000",
      "PhotometricInterpretation": "MONOCHROME2",
      "PixelBandwidth": 1815.0,
      "PixelRepresentation": 0,
      "PixelSpacing": [3.0, 3.0],
      "ProtocolName": "EPI_DGIST_1",
      "RepetitionTime": 2000.0,
      "Rows": 384,
      "SAR": 0.11422071984713,
      "SamplesPerPixel": 1,
      "ScanOptions": "FS",
      "ScanningSequence": "EP",
      "SequenceName": "*epfid2d1_64",
      "SequenceVariant": "SK",
      "SeriesDescription": "EPI_DGIST_1",
      "SeriesNumber": 2,
      "SeriesTime": "123539.304000",
      "SliceLocation": -75.662145997647,
      "SliceThickness": 4.0,
      "SmallestImagePixelValue": 0,
      "SoftwareVersions": "syngo MR D13C",
      "SpacingBetweenSlices": 4.8000000014337,
      "SpecificCharacterSet": "ISO_IR 100",
      "StudyID": "1",
      "StudyTime": "123100.048000",
      "TimeOfLastCalibration": ["123723.000000", "123723.000000"],
      "TransmitCoilName": "Body",
      "VariableFlipAngleFlag": "N",
      "WindowCenterWidthExplanation": "Algo1",
      "dBdt": 0.0},
    "slices": {}
  },
  "time": {
    "samples": {
      "AcquisitionNumber": [1, 2, 3, 4, 5, 6, 7, 8, 9, 10, 11, 12, 13, 14, 15, 16, 17, 18, 19, 20, 21, 22, 23, 24, 25, 26, 27, 28, 29, 30, 31, 32, 33, 34, 35, 36, 37, 38, 39, 40, 41, 42, 43, 44, 45, 46, 47, 48, 49, 50, 51, 52, 53, 54, 55, 56, 57, 58, 59, 60, 61, 62, 63, 64, 65, 66, 67, 68, 69, 70, 71, 72, 73, 74, 75, 76, 77, 78, 79, 80, 81, 82, 83, 84, 85, 86, 87, 88, 89, 90, 91, 92, 93, 94, 95, 96, 97, 98, 99, 100, 101, 102, 103, 104, 105, 106, 107, 108, 109, 110, 111, 112, 113, 114, 115, 116, 117, 118, 119, 120, 121, 122, 123, 124, 125, 126, 127, 128, 129, 130, 131, 132, 133, 134, 135, 136, 137, 138, 139, 140, 141, 142, 143, 144, 145, 146, 147, 148, 149, 150, 151, 152, 153, 154, 155, 156, 157, 158, 159, 160, 161, 162, 163, 164, 165, 166, 167, 168, 169, 170, 171, 172, 173, 174, 175, 176, 177, 178, 179, 180, 181, 182, 183, 184, 185, 186, 187, 188, 189, 190, 191, 192, 193, 194, 195, 196, 197, 198, 199, 200, 201, 202, 203, 204, 205, 206, 207, 208, 209, 210, 211, 212, 213, 214, 215, 216, 217, 218, 219, 220, 221, 222, 223, 224, 225, 226, 227, 228, 229, 230, 231, 232, 233, 234, 235, 236, 237, 238, 239, 240, 241, 242, 243, 244, 245, 246, 247, 248, 249, 250, 251, 252, 253, 254, 255, 256, 257, 258, 259, 260, 261, 262, 263, 264, 265, 266, 267, 268, 269, 270, 271, 272, 273, 274, 275, 276, 277, 278, 279, 280, 281, 282, 283, 284, 285, 286, 287, 288, 289, 290, 291, 292, 293, 294, 295, 296, 297, 298, 299, 300, 301, 302, 303, 304, 305, 306, 307, 308, 309, 310, 311, 312, 313, 314, 315, 316, 317, 318, 319, 320, 321, 322, 323, 324, 325, 326, 327, 328, 329, 330, 331, 332, 333, 334, 335, 336, 337, 338, 339, 340, 341, 342, 343, 344, 345, 346, 347, 348, 349, 350, 351, 352, 353, 354, 355, 356, 357, 358, 359, 360, 361, 362, 363, 364, 365, 366, 367, 368, 369, 370, 371, 372, 373, 374, 375, 376, 377, 378, 379, 380, 381, 382, 383, 384, 385, 386, 387, 388, 389, 390, 391, 392, 393, 394, 395, 396, 397, 398, 399, 400, 401, 402, 403, 404, 405, 406, 407, 408, 409, 410, 411, 412, 413, 414, 415, 416, 417, 418, 419, 420, 421, 422, 423, 424, 425, 426, 427, 428, 429, 430, 431, 432, 433, 434, 435, 436, 437, 438, 439, 440, 441, 442, 443, 444, 445, 446, 447, 448, 449, 450, 451, 452, 453, 454, 455, 456, 457, 458, 459, 460, 461, 462, 463, 464, 465, 466, 467, 468, 469, 470, 471, 472, 473, 474, 475, 476, 477, 478, 479, 480, 481, 482, 483, 484, 485, 486, 487, 488, 489, 490, 491, 492, 493, 494, 495, 496, 497, 498, 499, 500, 501, 502, 503, 504, 505, 506, 507, 508, 509, 510, 511, 512, 513, 514],
      "AcquisitionTime": ["123458.760000", "123500.760000", "123502.760000", "123504.760000", "123506.760000", "123508.760000", "123510.760000", "123512.760000", "123514.760000", "123516.760000", "123518.760000", "123520.760000", "123522.760000", "123524.760000", "123526.760000", "123528.760000", "123530.760000", "123532.760000", "123534.760000", "123536.762500", "123538.762500", "123540.762500", "123542.762500", "123544.762500", "123546.762500", "123548.762500", "123550.762500", "123552.762500", "123554.762500", "123556.762500", "123558.762500", "123600.762500", "123602.762500", "123604.762500", "123606.762500", "123608.762500", "123610.762500", "123612.762500", "123614.762500", "123616.762500", "123618.762500", "123620.762500", "123622.762500", "123624.762500", "123626.762500", "123628.762500", "123630.762500", "123632.762500", "123634.762500", "123636.762500", "123638.762500", "123640.762500", "123642.762500", "123644.762500", "123646.762500", "123648.762500", "123650.762500", "123652.762500", "123654.762500", "123656.762500", "123658.762500", "123700.762500", "123702.762500", "123704.762500", "123706.762500", "123708.762500", "123710.762500", "123712.762500", "123714.762500", "123716.762500", "123718.762500", "123720.762500", "123722.762500", "123724.762500", "123726.762500", "123728.762500", "123730.762500", "123732.762500", "123734.762500", "123736.762500", "123738.762500", "123740.762500", "123742.762500", "123744.762500", "123746.762500", "123748.762500", "123750.762500", "123752.762500", "123754.762500", "123756.762500", "123758.762500", "123800.762500", "123802.762500", "123804.762500", "123806.762500", "123808.762500", "123810.762500", "123812.762500", "123814.762500", "123816.762500", "123818.762500", "123820.762500", "123822.762500", "123824.762500", "123826.762500", "123828.762500", "123830.762500", "123832.762500", "123834.762500", "123836.762500", "123838.762500", "123840.762500", "123842.762500", "123844.762500", "123846.762500", "123848.762500", "123850.762500", "123852.762500", "123854.762500", "123856.762500", "123858.762500", "123900.762500", "123902.762500", "123904.762500", "123906.762500", "123908.762500", "123910.762500", "123912.762500", "123914.762500", "123916.762500", "123918.762500", "123920.762500", "123922.762500", "123924.762500", "123926.762500", "123928.762500", "123930.762500", "123932.762500", "123934.762500", "123936.762500", "123938.762500", "123940.762500", "123942.762500", "123944.762500", "123946.762500", "123948.762500", "123950.762500", "123952.762500", "123954.762500", "123956.762500", "123958.762500", "124000.762500", "124002.762500", "124004.762500", "124006.762500", "124008.762500", "124010.762500", "124012.762500", "124014.762500", "124016.762500", "124018.762500", "124020.762500", "124022.762500", "124024.762500", "124026.762500", "124028.762500", "124030.762500", "124032.762500", "124034.762500", "124036.762500", "124038.762500", "124040.762500", "124042.762500", "124044.762500", "124046.762500", "124048.762500", "124050.762500", "124052.762500", "124054.762500", "124056.762500", "124058.762500", "124100.762500", "124102.762500", "124104.762500", "124106.762500", "124108.762500", "124110.762500", "124112.762500", "124114.762500", "124116.762500", "124118.762500", "124120.762500", "124122.762500", "124124.762500", "124126.762500", "124128.762500", "124130.762500", "124132.762500", "124134.762500", "124136.762500", "124138.762500", "124140.762500", "124142.762500", "124144.762500", "124146.762500", "124148.762500", "124150.762500", "124152.762500", "124154.762500", "124156.762500", "124158.762500", "124200.762500", "124202.762500", "124204.762500", "124206.762500", "124208.762500", "124210.762500", "124212.762500", "124214.762500", "124216.762500", "124218.762500", "124220.762500", "124222.762500", "124224.762500", "124226.762500", "124228.762500", "124230.762500", "124232.762500", "124234.762500", "124236.762500", "124238.762500", "124240.762500", "124242.762500", "124244.762500", "124246.762500", "124248.762500", "124250.762500", "124252.762500", "124254.762500", "124256.762500", "124258.762500", "124300.762500", "124302.762500", "124304.762500", "124306.762500", "124308.762500", "124310.762500", "124312.762500", "124314.762500", "124316.762500", "124318.762500", "124320.762500", "124322.762500", "124324.762500", "124326.762500", "124328.762500", "124330.762500", "124332.762500", "124334.762500", "124336.762500", "124338.762500", "124340.762500", "124342.762500", "124344.762500", "124346.762500", "124348.762500", "124350.762500", "124352.762500", "124354.762500", "124356.762500", "124358.762500", "124400.762500", "124402.762500", "124404.762500", "124406.762500", "124408.762500", "124410.762500", "124412.762500", "124414.762500", "124416.762500", "124418.762500", "124420.762500", "124422.762500", "124424.762500", "124426.762500", "124428.762500", "124430.762500", "124432.762500", "124434.762500", "124436.762500", "124438.762500", "124440.762500", "124442.762500", "124444.762500", "124446.762500", "124448.762500", "124450.762500", "124452.762500", "124454.762500", "124456.762500", "124458.762500", "124500.762500", "124502.762500", "124504.762500", "124506.762500", "124508.762500", "124510.762500", "124512.762500", "124514.762500", "124516.762500", "124518.762500", "124520.762500", "124522.762500", "124524.762500", "124526.762500", "124528.762500", "124530.762500", "124532.762500", "124534.762500", "124536.762500", "124538.762500", "124540.762500", "124542.762500", "124544.762500", "124546.762500", "124548.762500", "124550.762500", "124552.762500", "124554.762500", "124556.762500", "124558.762500", "124600.762500", "124602.762500", "124604.762500", "124606.762500", "124608.762500", "124610.762500", "124612.762500", "124614.762500", "124616.762500", "124618.762500", "124620.762500", "124622.762500", "124624.762500", "124626.762500", "124628.762500", "124630.762500", "124632.762500", "124634.762500", "124636.762500", "124638.762500", "124640.762500", "124642.762500", "124644.762500", "124646.762500", "124648.762500", "124650.762500", "124652.762500", "124654.762500", "124656.762500", "124658.762500", "124700.762500", "124702.762500", "124704.762500", "124706.762500", "124708.762500", "124710.762500", "124712.762500", "124714.762500", "124716.762500", "124718.762500", "124720.762500", "124722.762500", "124724.762500", "124726.762500", "124728.762500", "124730.762500", "124732.762500", "124734.762500", "124736.762500", "124738.762500", "124740.762500", "124742.762500", "124744.762500", "124746.762500", "124748.762500", "124750.762500", "124752.762500", "124754.762500", "124756.762500", "124758.762500", "124800.762500", "124802.762500", "124804.762500", "124806.762500", "124808.762500", "124810.762500", "124812.762500", "124814.762500", "124816.762500", "124818.762500", "124820.762500", "124822.762500", "124824.762500", "124826.762500", "124828.762500", "124830.762500", "124832.762500", "124834.762500", "124836.762500", "124838.762500", "124840.762500", "124842.762500", "124844.762500", "124846.762500", "124848.762500", "124850.762500", "124852.762500", "124854.762500", "124856.762500", "124858.762500", "124900.762500", "124902.762500", "124904.762500", "124906.762500", "124908.762500", "124910.762500", "124912.762500", "124914.762500", "124916.762500", "124918.762500", "124920.762500", "124922.762500", "124924.762500", "124926.762500", "124928.762500", "124930.762500", "124932.762500", "124934.762500", "124936.762500", "124938.762500", "124940.762500", "124942.762500", "124944.762500", "124946.762500", "124948.762500", "124950.762500", "124952.762500", "124954.762500", "124956.762500", "124958.762500", "125000.762500", "125002.762500", "125004.762500", "125006.762500", "125008.762500", "125010.762500", "125012.762500", "125014.762500", "125016.762500", "125018.762500", "125020.762500", "125022.762500", "125024.762500", "125026.762500", "125028.762500", "125030.762500", "125032.762500", "125034.762500", "125036.762500", "125038.762500", "125040.762500", "125042.762500", "125044.762500", "125046.762500", "125048.762500", "125050.762500", "125052.762500", "125054.762500", "125056.762500", "125058.762500", "125100.762500", "125102.762500", "125104.762500", "125106.762500", "125108.762500", "125110.762500", "125112.762500", "125114.762500", "125116.762500", "125118.762500", "125120.762500", "125122.762500", "125124.762500", "125126.762500", "125128.762500", "125130.762500", "125132.762500", "125134.762500", "125136.762500", "125138.762500", "125140.762500", "125142.762500", "125144.762500", "125146.762500", "125148.762500", "125150.762500", "125152.762500", "125154.762500", "125156.762500", "125158.762500", "125200.762500", "125202.762500", "125204.762500"],
      "ContentTime": ["123539.307000", "123539.310000", "123539.312000", "123539.314000", "123539.316000", "123539.318000", "123539.332000", "123539.334000", "123539.336000", "123539.338000", "123539.340000", "123539.342000", "123539.344000", "123539.346000", "123539.347000", "123539.349000", "123539.351000", "123539.353000", "123539.355000", "123539.357000", "123619.303000", "123619.305000", "123619.307000", "123619.309000", "123619.311000", "123619.313000", "123619.315000", "123619.317000", "123619.319000", "123619.321000", "123619.323000", "123619.325000", "123619.327000", "123619.329000", "123619.331000", "123619.333000", "123619.335000", "123619.337000", "123619.339000", "123619.341000", "123659.303000", "123659.305000", "123659.323000", "123659.325000", "123659.327000", "123659.329000", "123659.331000", "123659.333000", "123659.335000", "123659.337000", "123659.339000", "123659.341000", "123659.343000", "123659.345000", "123659.347000", "123659.348000", "123659.350000", "123659.352000", "123659.354000", "123659.356000", "123739.303000", "123739.305000", "123739.307000", "123739.322000", "123739.324000", "123739.326000", "123739.328000", "123739.330000", "123739.332000", "123739.334000", "123739.335000", "123739.337000", "123739.339000", "123739.341000", "123739.343000", "123739.352000", "123739.354000", "123739.356000", "123739.358000", "123739.359000", "123819.303000", "123819.305000", "123819.307000", "123819.309000", "123819.311000", "123819.313000", "123819.315000", "123819.317000", "123819.319000", "123819.321000", "123819.323000", "123819.325000", "123819.327000", "123819.329000", "123819.331000", "123819.333000", "123819.335000", "123819.337000", "123819.345000", "123819.347000", "123859.303000", "123859.305000", "123859.307000", "123859.309000", "123859.311000", "123859.313000", "123859.315000", "123859.317000", "123859.319000", "123859.321000", "123859.323000", "123859.325000", "123859.327000", "123859.329000", "123859.331000", "123859.333000", "123859.335000", "123859.336000", "123859.338000", "123859.340000", "123939.303000", "123939.305000", "123939.307000", "123939.309000", "123939.311000", "123939.313000", "123939.315000", "123939.317000", "123939.319000", "123939.321000", "123939.323000", "123939.325000", "123939.327000", "123939.329000", "123939.331000", "123939.332000", "123939.334000", "123939.336000", "123939.338000", "123939.340000", "124019.302000", "124019.304000", "124019.306000", "124019.308000", "124019.310000", "124019.312000", "124019.314000", "124019.316000", "124019.318000", "124019.320000", "124019.322000", "124019.324000", "124019.326000", "124019.328000", "124019.330000", "124019.332000", "124019.334000", "124019.336000", "124019.337000", "124019.339000", "124059.303000", "124059.305000", "124059.307000", "124059.309000", "124059.311000", "124059.313000", "124059.315000", "124059.317000", "124059.319000", "124059.321000", "124059.323000", "124059.325000", "124059.327000", "124059.329000", "124059.331000", "124059.333000", "124059.335000", "124059.337000", "124059.338000", "124059.340000", "124139.303000", "124139.305000", "124139.307000", "124139.309000", "124139.311000", "124139.313000", "124139.315000", "124139.317000", "124139.319000", "124139.321000", "124139.323000", "124139.325000", "124139.327000", "124139.329000", "124139.331000", "124139.333000", "124139.335000", "124139.337000", "124139.339000", "124139.341000", "124219.303000", "124219.305000", "124219.307000", "124219.309000", "124219.311000", "124219.313000", "124219.315000", "124219.317000", "124219.319000", "124219.321000", "124219.323000", "124219.325000", "124219.327000", "124219.329000", "124219.331000", "124219.333000", "124219.335000", "124219.337000", "124219.338000", "124219.340000", "124259.303000", "124259.305000", "124259.307000", "124259.309000", "124259.311000", "124259.313000", "124259.315000", "124259.317000", "124259.319000", "124259.321000", "124259.323000", "124259.325000", "124259.327000", "124259.329000", "124259.331000", "124259.333000", "124259.335000", "124259.337000", "124259.339000", "124259.341000", "124339.303000", "124339.305000", "124339.307000", "124339.309000", "124339.311000", "124339.313000", "124339.315000", "124339.317000", "124339.319000", "124339.321000", "124339.323000", "124339.325000", "124339.327000", "124339.329000", "124339.331000", "124339.333000", "124339.335000", "124339.337000", "124339.339000", "124339.340000", "124419.303000", "124419.305000", "124419.307000", "124419.309000", "124419.311000", "124419.313000", "124419.315000", "124419.317000", "124419.319000", "124419.321000", "124419.323000", "124419.325000", "124419.327000", "124419.329000", "124419.331000", "124419.333000", "124419.335000", "124419.337000", "124419.338000", "124419.340000", "124459.302000", "124459.304000", "124459.306000", "124459.308000", "124459.310000", "124459.312000", "124459.314000", "124459.316000", "124459.318000", "124459.320000", "124459.322000", "124459.324000", "124459.326000", "124459.328000", "124459.330000", "124459.332000", "124459.334000", "124459.336000", "124459.338000", "124459.340000", "124539.303000", "124539.305000", "124539.307000", "124539.309000", "124539.311000", "124539.313000", "124539.315000", "124539.317000", "124539.319000", "124539.321000", "124539.323000", "124539.325000", "124539.327000", "124539.329000", "124539.331000", "124539.333000", "124539.335000", "124539.336000", "124539.338000", "124539.340000", "124619.303000", "124619.305000", "124619.307000", "124619.309000", "124619.311000", "124619.313000", "124619.315000", "124619.317000", "124619.319000", "124619.321000", "124619.323000", "124619.325000", "124619.327000", "124619.329000", "124619.331000", "124619.333000", "124619.334000", "124619.336000", "124619.338000", "124619.340000", "124659.303000", "124659.305000", "124659.307000", "124659.309000", "124659.311000", "124659.313000", "124659.315000", "124659.317000", "124659.319000", "124659.321000", "124659.323000", "124659.325000", "124659.327000", "124659.329000", "124659.331000", "124659.333000", "124659.335000", "124659.337000", "124659.339000", "124659.341000", "124739.303000", "124739.305000", "124739.307000", "124739.309000", "124739.311000", "124739.313000", "124739.315000", "124739.317000", "124739.319000", "124739.321000", "124739.323000", "124739.325000", "124739.327000", "124739.329000", "124739.331000", "124739.333000", "124739.335000", "124739.336000", "124739.338000", "124739.340000", "124819.303000", "124819.305000", "124819.307000", "124819.309000", "124819.311000", "124819.313000", "124819.315000", "124819.317000", "124819.319000", "124819.321000", "124819.323000", "124819.325000", "124819.327000", "124819.329000", "124819.331000", "124819.333000", "124819.335000", "124819.337000", "124819.339000", "124819.341000", "124859.303000", "124859.305000", "124859.307000", "124859.309000", "124859.311000", "124859.313000", "124859.315000", "124859.317000", "124859.319000", "124859.321000", "124859.323000", "124859.325000", "124859.327000", "124859.329000", "124859.331000", "124859.333000", "124859.335000", "124859.337000", "124859.339000", "124859.340000", "124939.302000", "124939.305000", "124939.307000", "124939.308000", "124939.310000", "124939.312000", "124939.314000", "124939.316000", "124939.318000", "124939.320000", "124939.322000", "124939.324000", "124939.326000", "124939.328000", "124939.330000", "124939.332000", "124939.334000", "124939.336000", "124939.338000", "124939.340000", "125019.303000", "125019.305000", "125019.307000", "125019.309000", "125019.311000", "125019.313000", "125019.315000", "125019.317000", "125019.319000", "125019.321000", "125019.323000", "125019.325000", "125019.327000", "125019.329000", "125019.331000", "125019.333000", "125019.335000", "125019.337000", "125019.338000", "125019.340000", "125059.303000", "125059.305000", "125059.307000", "125059.309000", "125059.311000", "125059.313000", "125059.315000", "125059.317000", "125059.319000", "125059.321000", "125059.323000", "125059.325000", "125059.327000", "125059.329000", "125059.331000", "125059.333000", "125059.335000", "125059.337000", "125059.339000", "125059.340000", "125139.303000", "125139.305000", "125139.307000", "125139.309000", "125139.311000", "125139.313000", "125139.315000", "125139.317000", "125139.319000", "125139.321000", "125139.323000", "125139.325000", "125139.327000", "125139.329000", "125139.331000", "125139.333000", "125139.335000", "125139.337000", "125139.338000", "125139.340000", "125205.908000", "125205.910000", "125205.912000", "125205.914000", "125205.916000", "125205.918000", "125205.920000", "125205.922000", "125205.924000", "125205.926000", "125205.928000", "125205.930000", "125205.932000", "125205.934000"],
